SpectraSuite Data File
++++++++++++++++++++++++++++++++++++
Date: Thu Nov 16 14:06:30 EST 2017
User: cheriyan
Dark Spectrum Present: No
Reference Spectrum Present: No
Number of Sampled Component Spectra: 1
Spectrometers: USB2+H05261
Integration Time (usec): 100000 (USB2+H05261)
Spectra Averaged: 1 (USB2+H05261)
Boxcar Smoothing: 1 (USB2+H05261)
Correct for Electrical Dark: No (USB2+H05261)
Strobe/Lamp Enabled: No (USB2+H05261)
Correct for Detector Non-linearity: No (USB2+H05261)
Correct for Stray Light: No (USB2+H05261)
Number of Pixels in Processed Spectrum: 2048
>>>>>Begin Processed Spectral Data<<<<<
0.00	325.33
1.00	325.33
2.00	323.77
3.00	294.13
4.00	266.82
5.00	241.86
6.00	261.36
7.00	245.76
8.00	218.45
9.00	206.75
10.00	245.76
11.00	280.86
12.00	266.04
13.00	230.93
14.00	220.79
15.00	268.38
16.00	278.52
17.00	289.45
18.00	244.20
19.00	242.64
20.00	263.70
21.00	305.83
22.00	362.00
23.00	419.74
24.00	568.75
25.00	727.13
26.00	834.01
27.00	864.44
28.00	847.27
29.00	869.12
30.00	851.17
31.00	856.64
32.00	856.64
33.00	856.64
34.00	867.56
35.00	883.16
36.00	901.11
37.00	908.91
38.00	878.48
39.00	878.48
40.00	904.23
41.00	964.30
42.00	1007.99
43.00	1004.87
44.00	976.00
45.00	950.26
46.00	941.68
47.00	947.92
48.00	996.29
49.00	1019.69
50.00	1027.50
51.00	990.05
52.00	1000.19
53.00	1022.03
54.00	1029.06
55.00	1022.03
56.00	1005.65
57.00	993.17
58.00	1013.45
59.00	1033.74
60.00	1064.16
61.00	1060.26
62.00	1043.10
63.00	1037.64
64.00	1033.74
65.00	1046.22
66.00	1052.46
67.00	1061.82
68.00	1096.15
69.00	1087.57
70.00	1110.97
71.00	1103.17
72.00	1096.15
73.00	1082.89
74.00	1071.19
75.00	1103.17
76.00	1110.97
77.00	1096.93
78.00	1112.53
79.00	1104.73
80.00	1142.96
81.00	1127.36
82.00	1138.28
83.00	1160.13
84.00	1174.95
85.00	1179.63
86.00	1146.86
87.00	1136.72
88.00	1140.62
89.00	1171.83
90.00	1186.65
91.00	1199.13
92.00	1200.69
93.00	1199.13
94.00	1199.13
95.00	1216.30
96.00	1231.12
97.00	1236.58
98.00	1220.20
99.00	1245.95
100.00	1244.38
101.00	1207.72
102.00	1200.69
103.00	1238.14
104.00	1283.39
105.00	1289.64
106.00	1261.55
107.00	1291.20
108.00	1283.39
109.00	1299.78
110.00	1273.25
111.00	1320.06
112.00	1306.02
113.00	1345.81
114.00	1353.61
115.00	1398.08
116.00	1389.50
117.00	1410.56
118.00	1410.56
119.00	1427.73
120.00	1400.42
121.00	1378.58
122.00	1416.02
123.00	1420.71
124.00	1436.31
125.00	1408.22
126.00	1428.51
127.00	1474.54
128.00	1460.49
129.00	1456.59
130.00	1458.15
131.00	1485.46
132.00	1490.14
133.00	1482.34
134.00	1498.72
135.00	1494.82
136.00	1504.18
137.00	1504.18
138.00	1533.05
139.00	1558.80
140.00	1570.50
141.00	1589.22
142.00	1604.05
143.00	1614.97
144.00	1594.69
145.00	1584.54
146.00	1597.03
147.00	1637.59
148.00	1651.64
149.00	1669.58
150.00	1702.35
151.00	1723.41
152.00	1746.82
153.00	1746.82
154.00	1804.55
155.00	1791.29
156.00	1788.95
157.00	1736.68
158.00	1728.10
159.00	1741.36
160.00	1769.44
161.00	1837.32
162.00	1861.51
163.00	1870.09
164.00	1866.97
165.00	1871.65
166.00	1885.69
167.00	1895.05
168.00	1873.99
169.00	1885.69
170.00	1899.73
171.00	1908.32
172.00	1889.59
173.00	1898.17
174.00	1929.38
175.00	1965.27
176.00	1957.47
177.00	1962.15
178.00	1963.71
179.00	1997.26
180.00	2003.50
181.00	2033.15
182.00	2019.88
183.00	2014.42
184.00	2030.02
185.00	2027.68
186.00	2098.68
187.00	2107.26
188.00	2162.66
189.00	2169.68
190.00	2135.35
191.00	2122.09
192.00	2097.12
193.00	2157.97
194.00	2146.27
195.00	2184.50
196.00	2150.95
197.00	2164.22
198.00	2184.50
199.00	2250.04
200.00	2312.45
201.00	2315.57
202.00	2304.65
203.00	2310.11
204.00	2307.77
205.00	2304.65
206.00	2294.51
207.00	2324.15
208.00	2373.30
209.00	2392.81
210.00	2402.17
211.00	2386.57
212.00	2374.08
213.00	2406.07
214.00	2454.44
215.00	2509.83
216.00	2548.84
217.00	2542.60
218.00	2503.59
219.00	2467.70
220.00	2488.77
221.00	2504.37
222.00	2490.33
223.00	2489.55
224.00	2512.18
225.00	2544.16
226.00	2568.35
227.00	2648.71
228.00	2690.06
229.00	2716.58
230.00	2692.40
231.00	2696.30
232.00	2688.50
233.00	2670.55
234.00	2717.36
235.00	2757.15
236.00	2814.88
237.00	2786.80
238.00	2771.97
239.00	2801.62
240.00	2859.35
241.00	2899.14
242.00	2913.19
243.00	2903.04
244.00	2931.13
245.00	2970.92
246.00	3002.13
247.00	3030.21
248.00	3065.32
249.00	3073.12
250.00	3105.11
251.00	3083.27
252.00	3090.29
253.00	3065.32
254.00	3128.52
255.00	3233.06
256.00	3272.07
257.00	3256.47
258.00	3229.16
259.00	3279.87
260.00	3289.23
261.00	3322.00
262.00	3350.09
263.00	3366.47
264.00	3379.73
265.00	3368.03
266.00	3389.88
267.00	3414.06
268.00	3387.54
269.00	3424.20
270.00	3409.38
271.00	3505.34
272.00	3574.78
273.00	3620.81
274.00	3582.58
275.00	3567.76
276.00	3590.38
277.00	3645.77
278.00	3598.96
279.00	3608.33
280.00	3615.35
281.00	3658.26
282.00	3701.95
283.00	3759.68
284.00	3790.11
285.00	3829.12
286.00	3809.61
287.00	3853.30
288.00	3843.16
289.00	3853.30
290.00	3841.60
291.00	3770.60
292.00	3808.05
293.00	3833.02
294.00	3896.99
295.00	3939.90
296.00	3998.42
297.00	4049.91
298.00	4026.50
299.00	4056.15
300.00	4064.73
301.00	4047.57
302.00	3969.55
303.00	3964.87
304.00	4050.69
305.00	4095.94
306.00	4120.12
307.00	4121.68
308.00	4160.69
309.00	4142.75
310.00	4164.59
311.00	4180.20
312.00	4191.12
313.00	4202.82
314.00	4241.83
315.00	4298.78
316.00	4294.10
317.00	4292.54
318.00	4309.71
319.00	4334.67
320.00	4371.34
321.00	4369.00
322.00	4390.06
323.00	4380.70
324.00	4472.76
325.00	4514.89
326.00	4571.07
327.00	4524.26
328.00	4456.38
329.00	4469.64
330.00	4515.67
331.00	4544.54
332.00	4514.11
333.00	4481.35
334.00	4551.56
335.00	4648.30
336.00	4727.88
337.00	4750.51
338.00	4751.29
339.00	4833.21
340.00	4833.21
341.00	4864.41
342.00	4830.87
343.00	4948.67
344.00	4961.16
345.00	4975.98
346.00	4961.16
347.00	4983.00
348.00	5005.63
349.00	5047.76
350.00	5052.44
351.00	5087.54
352.00	5088.32
353.00	5116.41
354.00	5085.98
355.00	5078.18
356.00	5093.01
357.00	5164.00
358.00	5174.14
359.00	5214.71
360.00	5187.41
361.00	5239.68
362.00	5269.33
363.00	5404.30
364.00	5426.14
365.00	5440.97
366.00	5410.54
367.00	5428.48
368.00	5478.41
369.00	5543.95
370.00	5536.15
371.00	5484.66
372.00	5405.08
373.00	5436.28
374.00	5479.97
375.00	5534.59
376.00	5580.62
377.00	5632.89
378.00	5690.62
379.00	5725.73
380.00	5824.81
381.00	5916.87
382.00	6015.96
383.00	6022.20
384.00	6007.38
385.00	6016.74
386.00	6054.97
387.00	6135.32
388.00	6194.62
389.00	6243.77
390.00	6277.32
391.00	6335.83
392.00	6325.69
393.00	6363.92
394.00	6377.96
395.00	6463.00
396.00	6508.25
397.00	6558.18
398.00	6601.87
399.00	6661.16
400.00	6653.36
401.00	6710.32
402.00	6683.01
403.00	6756.35
404.00	6805.50
405.00	6888.20
406.00	6901.46
407.00	6886.64
408.00	6816.42
409.00	6790.67
410.00	6809.40
411.00	6938.13
412.00	6977.92
413.00	6969.34
414.00	6943.59
415.00	6974.80
416.00	6969.34
417.00	7010.68
418.00	7011.46
419.00	7084.02
420.00	7130.05
421.00	7120.69
422.00	7151.90
423.00	7119.91
424.00	7174.52
425.00	7222.11
426.00	7325.10
427.00	7389.85
428.00	7284.53
429.00	7239.28
430.00	7240.84
431.00	7304.03
432.00	7228.35
433.00	7258.00
434.00	7299.35
435.00	7449.14
436.00	7417.16
437.00	7462.41
438.00	7460.85
439.00	7497.52
440.00	7604.40
441.00	7624.69
442.00	7704.26
443.00	7667.60
444.00	7690.22
445.00	7711.28
446.00	7765.90
447.00	7869.66
448.00	7896.97
449.00	7904.77
450.00	7913.35
451.00	7957.04
452.00	7985.13
453.00	8060.80
454.00	8088.89
455.00	8155.99
456.00	8111.52
457.00	8187.97
458.00	8213.72
459.00	8282.38
460.00	8260.53
461.00	8265.99
462.00	8290.96
463.00	8288.62
464.00	8288.62
465.00	8331.53
466.00	8367.42
467.00	8435.29
468.00	8400.96
469.00	8542.18
470.00	8639.70
471.00	8739.56
472.00	8739.56
473.00	8702.89
474.00	8777.01
475.00	8820.70
476.00	8899.50
477.00	8980.64
478.00	9055.53
479.00	9135.11
480.00	9043.83
481.00	9079.72
482.00	9058.65
483.00	9110.93
484.00	9205.33
485.00	9348.88
486.00	9446.40
487.00	9363.70
488.00	9309.09
489.00	9366.82
490.00	9456.54
491.00	9468.25
492.00	9476.05
493.00	9456.54
494.00	9479.17
495.00	9422.22
496.00	9522.08
497.00	9629.74
498.00	9720.24
499.00	9815.43
500.00	9809.19
501.00	9894.22
502.00	9868.48
503.00	10002.67
504.00	10038.56
505.00	10061.18
506.00	10030.76
507.00	10099.41
508.00	10207.08
509.00	10306.94
510.00	10352.97
511.00	10388.08
512.00	10428.65
513.00	10502.76
514.00	10571.42
515.00	10526.17
516.00	10558.94
517.00	10557.38
518.00	10677.52
519.00	10619.01
520.00	10727.46
521.00	10730.58
522.00	10771.93
523.00	10718.09
524.00	10755.54
525.00	10930.30
526.00	10867.11
527.00	10947.47
528.00	10906.90
529.00	11001.30
530.00	11016.12
531.00	10971.65
532.00	11024.70
533.00	11012.22
534.00	11077.76
535.00	11162.01
536.00	11088.68
537.00	11040.31
538.00	11032.51
539.00	11232.23
540.00	11370.32
541.00	11382.81
542.00	11322.73
543.00	11382.81
544.00	11463.94
545.00	11584.09
546.00	11571.61
547.00	11646.51
548.00	11644.17
549.00	11825.95
550.00	11951.56
551.00	12041.28
552.00	11993.69
553.00	11978.08
554.00	12008.51
555.00	12067.02
556.00	12108.37
557.00	12212.14
558.00	12302.64
559.00	12390.02
560.00	12475.06
561.00	12626.41
562.00	12663.86
563.00	12742.66
564.00	12713.79
565.00	12816.77
566.00	12879.19
567.00	12931.46
568.00	12897.91
569.00	12863.58
570.00	12982.17
571.00	13139.77
572.00	13253.67
573.00	13336.37
574.00	13359.00
575.00	13564.18
576.00	13742.07
577.00	13998.74
578.00	13989.38
579.00	13919.95
580.00	13884.06
581.00	13978.46
582.00	14164.14
583.00	14240.60
584.00	14390.39
585.00	14484.80
586.00	14674.38
587.00	14649.41
588.00	14585.44
589.00	14661.90
590.00	14866.30
591.00	15108.94
592.00	15240.79
593.00	15394.48
594.00	15424.91
595.00	15461.58
596.00	15597.33
597.00	15751.03
598.00	15925.79
599.00	15960.89
600.00	16095.08
601.00	16177.00
602.00	16400.13
603.00	16542.91
604.00	16671.64
605.00	16900.23
606.00	17122.58
607.00	17326.99
608.00	17248.97
609.00	17380.04
610.00	17452.59
611.00	17564.16
612.00	17639.06
613.00	17894.96
614.00	18045.53
615.00	18130.57
616.00	18168.02
617.00	18366.96
618.00	18534.70
619.00	18647.83
620.00	18856.14
621.00	19062.88
622.00	19318.78
623.00	19588.72
624.00	19699.51
625.00	19797.03
626.00	19736.18
627.00	19962.43
628.00	20024.06
629.00	20262.80
630.00	20488.27
631.00	20590.47
632.00	20683.31
633.00	20789.42
634.00	21142.84
635.00	21287.95
636.00	21453.35
637.00	21695.21
638.00	21941.74
639.00	22037.70
640.00	22069.69
641.00	22237.43
642.00	22444.18
643.00	22670.43
644.00	22884.20
645.00	23062.86
646.00	23197.83
647.00	23195.49
648.00	23305.49
649.00	23498.98
650.00	23736.93
651.00	23916.37
652.00	24034.18
653.00	24239.37
654.00	24467.18
655.00	24663.00
656.00	24891.60
657.00	25062.46
658.00	25240.34
659.00	25425.24
660.00	25790.36
661.00	25976.05
662.00	26174.99
663.00	26208.54
664.00	26341.17
665.00	26407.48
666.00	26511.25
667.00	26684.45
668.00	26797.57
669.00	26841.26
670.00	27009.78
671.00	27220.43
672.00	27492.71
673.00	27621.44
674.00	27892.94
675.00	27992.81
676.00	28099.69
677.00	28070.82
678.00	28137.92
679.00	28390.70
680.00	28613.05
681.00	28899.37
682.00	29099.10
683.00	29372.94
684.00	29586.71
685.00	29695.16
686.00	29923.75
687.00	30031.41
688.00	30199.93
689.00	30384.05
690.00	30740.60
691.00	31072.95
692.00	31095.58
693.00	31209.48
694.00	31293.74
695.00	31519.99
696.00	31754.05
697.00	31929.59
698.00	32055.20
699.00	32002.14
700.00	32062.22
701.00	32223.72
702.00	32459.33
703.00	32726.93
704.00	32887.65
705.00	33202.84
706.00	33464.98
707.00	33782.51
708.00	33929.19
709.00	33978.34
710.00	34171.82
711.00	34243.60
712.00	34395.73
713.00	34403.53
714.00	34605.60
715.00	34757.74
716.00	34735.11
717.00	35001.93
718.00	35143.92
719.00	35372.52
720.00	35337.41
721.00	35341.31
722.00	35550.40
723.00	35722.04
724.00	36025.53
725.00	36112.13
726.00	36155.04
727.00	36361.00
728.00	36396.89
729.00	36564.63
730.00	36680.88
731.00	36868.12
732.00	36883.72
733.00	36842.37
734.00	36882.94
735.00	37030.40
736.00	37135.72
737.00	37409.56
738.00	37504.74
739.00	37630.35
740.00	37777.03
741.00	38025.12
742.00	38276.34
743.00	38343.44
744.00	38354.36
745.00	38535.36
746.00	38749.13
747.00	39058.08
748.00	39096.31
749.00	39200.07
750.00	39264.05
751.00	39453.63
752.00	39682.22
753.00	39806.27
754.00	39810.95
755.00	39807.83
756.00	40019.26
757.00	40197.92
758.00	40289.98
759.00	40363.32
760.00	40460.84
761.00	40635.60
762.00	40700.36
763.00	40862.63
764.00	40914.90
765.00	41069.38
766.00	41285.49
767.00	41541.39
768.00	41609.26
769.00	41688.06
770.00	41951.76
771.00	42302.06
772.00	42550.16
773.00	42666.41
774.00	42611.79
775.00	42829.46
776.00	42890.32
777.00	43086.92
778.00	43093.16
779.00	43244.52
780.00	43218.77
781.00	43282.75
782.00	43442.68
783.00	43785.96
784.00	43922.49
785.00	43902.21
786.00	44096.47
787.00	44314.14
788.00	44672.24
789.00	44814.24
790.00	44713.59
791.00	44812.68
792.00	44811.90
793.00	45100.56
794.00	45055.31
795.00	45224.61
796.00	45407.17
797.00	45534.34
798.00	45644.35
799.00	45691.16
800.00	45794.92
801.00	45909.61
802.00	46180.33
803.00	46307.50
804.00	46333.24
805.00	46532.97
806.00	46737.38
807.00	46956.61
808.00	46846.60
809.00	46953.49
810.00	47268.68
811.00	47443.44
812.00	47484.01
813.00	47446.56
814.00	47648.63
815.00	47812.46
816.00	47833.53
817.00	47695.44
818.00	47717.28
819.00	47870.98
820.00	47968.50
821.00	48204.11
822.00	48240.78
823.00	48499.80
824.00	48594.98
825.00	48897.69
826.00	48978.05
827.00	49144.23
828.00	49075.57
829.00	49120.04
830.00	49064.65
831.00	48998.34
832.00	49229.27
833.00	49225.37
834.00	49377.50
835.00	49270.62
836.00	49531.98
837.00	49725.46
838.00	49966.54
839.00	50046.90
840.00	50161.58
841.00	50192.79
842.00	50383.93
843.00	50617.99
844.00	50832.53
845.00	50952.68
846.00	51039.28
847.00	51182.84
848.00	51200.78
849.00	51204.68
850.00	51182.84
851.00	51215.60
852.00	51235.11
853.00	51209.36
854.00	51246.03
855.00	51327.95
856.00	51511.29
857.00	51637.68
858.00	51832.72
859.00	51864.71
860.00	52036.35
861.00	51991.88
862.00	52095.64
863.00	52122.95
864.00	52151.04
865.00	52033.23
866.00	52002.80
867.00	52120.61
868.00	52315.65
869.00	52527.08
870.00	52672.98
871.00	52909.37
872.00	52980.37
873.00	53042.78
874.00	53063.85
875.00	53077.89
876.00	53158.25
877.00	53185.55
878.00	53215.20
879.00	53386.84
880.00	53483.58
881.00	53680.19
882.00	53548.34
883.00	53557.70
884.00	53309.60
885.00	53271.37
886.00	53246.41
887.00	53416.49
888.00	53602.17
889.00	53685.65
890.00	53823.74
891.00	54017.22
892.00	54160.78
893.00	54099.14
894.00	54033.61
895.00	54001.62
896.00	54135.81
897.00	54110.06
898.00	54190.42
899.00	54268.44
900.00	54369.86
901.00	54479.87
902.00	54411.21
903.00	54511.08
904.00	54606.26
905.00	54986.21
906.00	54997.13
907.00	55003.37
908.00	54738.11
909.00	54939.39
910.00	55017.41
911.00	55224.94
912.00	55132.88
913.00	55155.50
914.00	55028.34
915.00	55047.84
916.00	54989.33
917.00	55047.84
918.00	55114.15
919.00	55104.79
920.00	55182.81
921.00	55180.47
922.00	55330.26
923.00	55321.68
924.00	55310.76
925.00	55369.27
926.00	55631.41
927.00	55763.26
928.00	55770.28
929.00	55808.51
930.00	55867.81
931.00	56026.18
932.00	56047.25
933.00	56105.76
934.00	56044.91
935.00	56012.92
936.00	56069.09
937.00	56081.58
938.00	56019.16
939.00	56084.70
940.00	56159.59
941.00	56172.86
942.00	56126.83
943.00	56169.74
944.00	56371.02
945.00	56520.82
946.00	56641.74
947.00	56611.32
948.00	56665.93
949.00	56607.42
950.00	56754.87
951.00	56734.59
952.00	56739.27
953.00	56626.92
954.00	56584.01
955.00	56680.75
956.00	56747.07
957.00	56864.88
958.00	57050.56
959.00	57228.44
960.00	57208.15
961.00	57119.21
962.00	57193.33
963.00	57283.83
964.00	57417.24
965.00	57482.78
966.00	57660.66
967.00	57842.44
968.00	57803.43
969.00	57726.19
970.00	57706.69
971.00	57891.59
972.00	57975.85
973.00	57870.53
974.00	57808.89
975.00	57903.29
976.00	57905.63
977.00	57819.03
978.00	57792.51
979.00	57968.83
980.00	57996.13
981.00	58182.60
982.00	58046.07
983.00	58135.79
984.00	58086.64
985.00	58258.27
986.00	58342.53
987.00	58298.06
988.00	58310.55
989.00	58310.55
990.00	58501.69
991.00	58469.70
992.00	58518.85
993.00	58344.09
994.00	58565.66
995.00	58756.03
996.00	59053.28
997.00	59205.41
998.00	59263.14
999.00	59264.70
1000.00	59232.72
1001.00	59282.65
1002.00	59173.42
1003.00	58944.83
1004.00	58901.92
1005.00	58954.97
1006.00	59073.56
1007.00	59005.69
1008.00	59023.63
1009.00	59028.31
1010.00	59020.51
1011.00	59093.07
1012.00	59174.20
1013.00	59303.71
1014.00	59332.58
1015.00	59377.83
1016.00	59497.20
1017.00	59621.25
1018.00	59766.36
1019.00	59826.43
1020.00	59829.55
1021.00	59906.79
1022.00	59916.15
1023.00	59791.33
1024.00	59654.01
1025.00	59599.40
1026.00	59842.82
1027.00	60022.26
1028.00	60182.98
1029.00	60091.69
1030.00	60045.66
1031.00	60104.18
1032.00	60155.67
1033.00	60251.63
1034.00	60220.42
1035.00	60342.91
1036.00	60374.90
1037.00	60394.40
1038.00	60346.03
1039.00	60224.32
1040.00	60234.47
1041.00	60245.39
1042.00	60367.88
1043.00	60417.81
1044.00	60605.83
1045.00	60769.67
1046.00	60819.60
1047.00	60762.65
1048.00	60761.87
1049.00	60771.23
1050.00	60776.69
1051.00	60779.81
1052.00	60867.97
1053.00	60955.35
1054.00	60947.55
1055.00	60785.27
1056.00	60730.66
1057.00	60747.82
1058.00	60956.91
1059.00	61016.99
1060.00	61153.52
1061.00	61148.84
1062.00	61223.73
1063.00	61097.34
1064.00	61000.60
1065.00	60969.40
1066.00	60995.92
1067.00	61160.54
1068.00	61205.79
1069.00	61311.89
1070.00	61228.41
1071.00	61258.84
1072.00	61342.32
1073.00	61567.79
1074.00	61673.12
1075.00	61666.09
1076.00	61627.09
1077.00	61590.42
1078.00	61615.38
1079.00	61592.76
1080.00	61645.03
1081.00	61704.32
1082.00	61790.92
1083.00	61802.63
1084.00	61765.96
1085.00	61747.23
1086.00	61735.53
1087.00	61769.08
1088.00	61701.98
1089.00	61805.75
1090.00	61842.41
1091.00	61974.26
1092.00	61992.99
1093.00	61998.45
1094.00	62078.81
1095.00	62110.80
1096.00	62114.70
1097.00	62081.93
1098.00	62094.41
1099.00	62137.32
1100.00	62123.28
1101.00	62163.85
1102.00	62240.31
1103.00	62264.49
1104.00	62285.56
1105.00	62240.31
1106.00	62211.44
1107.00	62186.47
1108.00	62252.79
1109.00	62276.19
1110.00	62405.70
1111.00	62401.80
1112.00	62524.29
1113.00	62369.04
1114.00	62331.59
1115.00	62200.52
1116.00	62280.88
1117.00	62354.21
1118.00	62447.05
1119.00	62408.82
1120.00	62429.89
1121.00	62422.09
1122.00	62529.75
1123.00	62451.73
1124.00	62514.93
1125.00	62475.14
1126.00	62512.59
1127.00	62575.78
1128.00	62490.74
1129.00	62503.23
1130.00	62486.06
1131.00	62564.08
1132.00	62613.23
1133.00	62559.40
1134.00	62516.49
1135.00	62473.58
1136.00	62577.34
1137.00	62641.32
1138.00	62779.41
1139.00	62844.16
1140.00	62922.18
1141.00	62886.29
1142.00	62864.45
1143.00	62882.39
1144.00	62916.72
1145.00	62916.72
1146.00	63011.12
1147.00	62933.10
1148.00	62952.61
1149.00	62877.71
1150.00	62939.35
1151.00	62912.82
1152.00	62934.66
1153.00	62898.00
1154.00	62822.32
1155.00	62784.09
1156.00	62769.27
1157.00	62834.02
1158.00	62820.76
1159.00	62912.82
1160.00	62961.19
1161.00	63008.00
1162.00	62986.16
1163.00	62948.71
1164.00	62883.95
1165.00	62908.14
1166.00	62894.88
1167.00	62963.53
1168.00	63084.46
1169.00	63185.88
1170.00	63238.93
1171.00	63170.28
1172.00	63125.81
1173.00	63029.85
1174.00	63008.78
1175.00	63075.10
1176.00	63143.75
1177.00	63141.41
1178.00	63049.35
1179.00	63044.67
1180.00	63113.33
1181.00	63222.55
1182.00	63257.66
1183.00	63196.80
1184.00	63221.77
1185.00	63221.77
1186.00	63222.55
1187.00	63245.18
1188.00	63280.28
1189.00	63252.98
1190.00	63135.95
1191.00	63126.59
1192.00	63156.24
1193.00	63163.26
1194.00	63110.99
1195.00	63178.08
1196.00	63143.75
1197.00	63173.40
1198.00	63106.30
1199.00	63219.43
1200.00	63338.02
1201.00	63426.96
1202.00	63402.77
1203.00	63333.34
1204.00	63249.08
1205.00	63313.83
1206.00	63307.59
1207.00	63313.05
1208.00	63206.95
1209.00	63202.27
1210.00	63322.41
1211.00	63384.05
1212.00	63494.83
1213.00	63437.88
1214.00	63409.79
1215.00	63366.88
1216.00	63298.23
1217.00	63299.01
1218.00	63224.11
1219.00	63273.26
1220.00	63345.04
1221.00	63306.81
1222.00	63418.38
1223.00	63483.13
1224.00	63595.48
1225.00	63536.96
1226.00	63494.83
1227.00	63428.52
1228.00	63377.81
1229.00	63235.03
1230.00	63243.62
1231.00	63270.14
1232.00	63375.47
1233.00	63442.56
1234.00	63486.25
1235.00	63505.76
1236.00	63541.64
1237.00	63552.57
1238.00	63605.62
1239.00	63664.91
1240.00	63832.65
1241.00	63907.55
1242.00	63869.32
1243.00	63687.54
1244.00	63536.18
1245.00	63528.38
1246.00	63607.96
1247.00	63697.68
1248.00	63730.45
1249.00	63805.34
1250.00	63903.65
1251.00	63970.74
1252.00	63988.69
1253.00	63996.49
1254.00	64001.95
1255.00	63888.82
1256.00	63863.08
1257.00	63810.03
1258.00	63873.22
1259.00	63781.94
1260.00	63847.47
1261.00	63938.75
1262.00	64124.44
1263.00	64186.07
1264.00	64189.19
1265.00	64077.63
1266.00	63962.94
1267.00	63919.25
1268.00	64023.01
1269.00	64114.29
1270.00	64185.29
1271.00	64295.30
1272.00	64441.19
1273.00	64476.30
1274.00	64420.90
1275.00	64349.91
1276.00	64321.04
1277.00	64281.25
1278.00	64293.74
1279.00	64342.11
1280.00	64288.27
1281.00	64299.20
1282.00	64334.31
1283.00	64470.06
1284.00	64402.18
1285.00	64453.67
1286.00	64456.01
1287.00	64470.06
1288.00	64404.52
1289.00	64466.94
1290.00	64529.35
1291.00	64551.98
1292.00	64559.00
1293.00	64615.95
1294.00	64631.55
1295.00	64580.84
1296.00	64512.19
1297.00	64424.03
1298.00	64473.18
1299.00	64545.73
1300.00	64552.76
1301.00	64541.05
1302.00	64438.85
1303.00	64509.07
1304.00	64524.67
1305.00	64650.28
1306.00	64696.31
1307.00	64648.72
1308.00	64601.91
1309.00	64512.19
1310.00	64507.50
1311.00	64551.19
1312.00	64742.34
1313.00	64845.32
1314.00	64949.09
1315.00	64942.84
1316.00	64930.36
1317.00	64793.83
1318.00	64759.50
1319.00	64791.49
1320.00	64929.58
1321.00	65016.96
1322.00	65132.43
1323.00	65180.02
1324.00	65204.98
1325.00	65135.55
1326.00	64973.27
1327.00	64919.44
1328.00	64818.80
1329.00	64942.84
1330.00	64925.68
1331.00	64984.97
1332.00	64931.92
1333.00	64933.48
1334.00	65021.64
1335.00	65079.38
1336.00	65121.51
1337.00	65150.37
1338.00	65190.94
1339.00	65307.19
1340.00	65316.55
1341.00	65345.42
1342.00	65222.15
1343.00	65229.17
1344.00	65138.67
1345.00	65080.16
1346.00	65014.62
1347.00	65092.64
1348.00	65135.55
1349.00	65109.80
1350.00	64996.68
1351.00	65016.18
1352.00	64981.85
1353.00	65070.79
1354.00	65030.22
1355.00	65006.82
1356.00	65052.85
1357.00	65114.48
1358.00	65195.62
1359.00	65133.21
1360.00	65149.59
1361.00	65176.90
1362.00	65187.04
1363.00	65247.89
1364.00	65261.94
1365.00	65310.31
1366.00	65270.52
1367.00	65331.37
1368.00	65339.96
1369.00	65405.49
1370.00	65264.28
1371.00	65173.78
1372.00	65024.76
1373.00	65041.15
1374.00	65070.01
1375.00	65114.48
1376.00	65207.33
1377.00	65141.01
1378.00	65178.46
1379.00	65207.32
1380.00	65307.97
1381.00	65316.55
1382.00	65278.32
1383.00	65354.00
1384.00	65265.06
1385.00	65269.74
1386.00	65291.58
1387.00	65446.84
1388.00	65488.97
1389.00	65345.42
1390.00	65266.62
1391.00	65208.89
1392.00	65278.32
1393.00	65242.43
1394.00	65137.11
1395.00	65066.11
1396.00	65146.47
1397.00	65205.76
1398.00	65219.81
1399.00	65143.35
1400.00	65165.20
1401.00	65155.83
1402.00	65194.06
1403.00	65187.82
1404.00	65150.37
1405.00	65080.94
1406.00	65018.52
1407.00	65028.66
1408.00	65001.36
1409.00	64976.39
1410.00	64982.63
1411.00	64933.48
1412.00	64966.25
1413.00	65018.52
1414.00	65176.12
1415.00	65282.22
1416.00	65361.02
1417.00	65304.85
1418.00	65222.93
1419.00	65125.41
1420.00	65133.21
1421.00	65155.05
1422.00	65190.16
1423.00	65176.12
1424.00	65148.81
1425.00	65034.91
1426.00	64974.83
1427.00	64995.90
1428.00	64940.50
1429.00	64939.72
1430.00	64942.06
1431.00	65067.67
1432.00	65165.98
1433.00	65158.95
1434.00	65160.51
1435.00	65090.30
1436.00	65029.44
1437.00	64986.53
1438.00	65001.36
1439.00	65102.00
1440.00	65158.17
1441.00	65193.28
1442.00	65144.91
1443.00	65107.46
1444.00	65018.52
1445.00	64963.13
1446.00	64924.12
1447.00	64917.10
1448.00	64826.60
1449.00	64740.00
1450.00	64749.36
1451.00	64818.02
1452.00	64881.21
1453.00	64936.60
1454.00	64987.31
1455.00	65053.63
1456.00	64999.02
1457.00	64963.13
1458.00	65001.36
1459.00	64920.22
1460.00	64892.91
1461.00	64747.02
1462.00	64772.77
1463.00	64696.31
1464.00	64706.45
1465.00	64730.64
1466.00	64786.03
1467.00	64777.45
1468.00	64722.05
1469.00	64711.13
1470.00	64665.10
1471.00	64686.17
1472.00	64735.32
1473.00	64842.98
1474.00	64902.28
1475.00	64882.77
1476.00	64868.73
1477.00	64833.62
1478.00	64821.92
1479.00	64824.26
1480.00	64806.31
1481.00	64872.63
1482.00	64881.99
1483.00	64955.33
1484.00	64871.85
1485.00	64753.26
1486.00	64647.94
1487.00	64614.39
1488.00	64570.70
1489.00	64543.39
1490.00	64431.83
1491.00	64494.24
1492.00	64481.76
1493.00	64538.71
1494.00	64615.95
1495.00	64679.92
1496.00	64694.75
1497.00	64600.35
1498.00	64563.68
1499.00	64523.89
1500.00	64529.35
1501.00	64461.47
1502.00	64490.34
1503.00	64445.87
1504.00	64512.97
1505.00	64538.71
1506.00	64530.13
1507.00	64590.98
1508.00	64649.50
1509.00	64668.22
1510.00	64573.82
1511.00	64438.85
1512.00	64321.82
1513.00	64218.84
1514.00	64228.20
1515.00	64314.02
1516.00	64408.42
1517.00	64436.51
1518.00	64493.46
1519.00	64526.23
1520.00	64526.23
1521.00	64417.00
1522.00	64298.42
1523.00	64268.77
1524.00	64348.35
1525.00	64368.63
1526.00	64292.96
1527.00	64182.17
1528.00	64160.33
1529.00	64168.91
1530.00	64147.06
1531.00	64162.67
1532.00	64212.60
1533.00	64301.54
1534.00	64263.31
1535.00	64171.25
1536.00	64141.60
1537.00	64127.56
1538.00	64243.02
1539.00	64276.57
1540.00	64301.54
1541.00	64246.93
1542.00	64168.91
1543.00	64216.50
1544.00	64267.99
1545.00	64329.62
1546.00	64292.96
1547.00	64226.64
1548.00	64161.11
1549.00	64090.11
1550.00	64058.90
1551.00	64040.18
1552.00	64087.77
1553.00	64079.97
1554.00	64104.15
1555.00	64066.70
1556.00	64033.16
1557.00	64001.17
1558.00	63998.05
1559.00	64061.24
1560.00	64049.54
1561.00	64101.03
1562.00	64102.59
1563.00	64150.18
1564.00	64111.95
1565.00	64109.61
1566.00	64073.73
1567.00	64079.97
1568.00	64090.11
1569.00	64027.70
1570.00	64003.51
1571.00	63838.89
1572.00	63824.85
1573.00	63791.30
1574.00	63884.14
1575.00	63896.62
1576.00	63868.54
1577.00	63797.54
1578.00	63766.34
1579.00	63717.96
1580.00	63681.30
1581.00	63623.56
1582.00	63601.72
1583.00	63575.19
1584.00	63603.28
1585.00	63656.33
1586.00	63681.30
1587.00	63626.68
1588.00	63607.18
1589.00	63660.23
1590.00	63703.14
1591.00	63645.41
1592.00	63568.95
1593.00	63527.60
1594.00	63558.81
1595.00	63530.72
1596.00	63551.79
1597.00	63585.33
1598.00	63657.89
1599.00	63709.38
1600.00	63693.78
1601.00	63648.53
1602.00	63647.75
1603.00	63530.72
1604.00	63472.21
1605.00	63298.23
1606.00	63298.23
1607.00	63303.69
1608.00	63354.40
1609.00	63365.32
1610.00	63314.61
1611.00	63394.97
1612.00	63465.19
1613.00	63545.54
1614.00	63568.17
1615.00	63673.49
1616.00	63652.43
1617.00	63610.30
1618.00	63478.45
1619.00	63486.25
1620.00	63476.89
1621.00	63429.30
1622.00	63383.27
1623.00	63389.51
1624.00	63378.59
1625.00	63372.34
1626.00	63332.56
1627.00	63332.56
1628.00	63300.57
1629.00	63299.79
1630.00	63372.34
1631.00	63408.23
1632.00	63368.44
1633.00	63302.13
1634.00	63373.13
1635.00	63412.91
1636.00	63432.42
1637.00	63366.88
1638.00	63198.37
1639.00	63050.91
1640.00	62988.50
1641.00	63104.74
1642.00	63273.26
1643.00	63412.13
1644.00	63431.64
1645.00	63405.89
1646.00	63254.54
1647.00	63153.90
1648.00	63130.49
1649.00	63166.38
1650.00	63096.16
1651.00	62919.84
1652.00	62908.92
1653.00	63057.15
1654.00	63163.26
1655.00	63068.08
1656.00	62940.13
1657.00	62867.57
1658.00	62882.39
1659.00	62901.90
1660.00	62988.50
1661.00	63030.63
1662.00	63025.95
1663.00	63054.03
1664.00	63060.27
1665.00	63107.86
1666.00	63068.08
1667.00	63080.56
1668.00	63109.42
1669.00	63121.91
1670.00	63055.59
1671.00	63078.22
1672.00	63036.09
1673.00	63179.64
1674.00	63212.41
1675.00	63174.18
1676.00	63106.30
1677.00	62895.66
1678.00	62826.22
1679.00	62653.80
1680.00	62675.65
1681.00	62727.92
1682.00	62791.11
1683.00	62804.38
1684.00	62770.05
1685.00	62764.59
1686.00	62738.84
1687.00	62718.56
1688.00	62618.69
1689.00	62594.51
1690.00	62450.95
1691.00	62501.67
1692.00	62511.81
1693.00	62614.01
1694.00	62599.19
1695.00	62681.89
1696.00	62709.19
1697.00	62675.65
1698.00	62507.91
1699.00	62418.19
1700.00	62378.40
1701.00	62326.91
1702.00	62312.86
1703.00	62306.62
1704.00	62365.13
1705.00	62395.56
1706.00	62445.49
1707.00	62354.99
1708.00	62255.91
1709.00	62192.72
1710.00	62220.02
1711.00	62273.07
1712.00	62262.15
1713.00	62300.38
1714.00	62266.83
1715.00	62175.55
1716.00	62012.49
1717.00	61948.52
1718.00	61974.26
1719.00	61955.54
1720.00	61916.53
1721.00	61810.43
1722.00	61794.04
1723.00	61757.38
1724.00	61732.41
1725.00	61765.96
1726.00	61733.19
1727.00	61758.16
1728.00	61667.65
1729.00	61709.78
1730.00	61666.87
1731.00	61678.58
1732.00	61687.94
1733.00	61688.72
1734.00	61792.48
1735.00	61816.67
1736.00	61822.13
1737.00	61783.12
1738.00	61668.44
1739.00	61762.06
1740.00	61622.40
1741.00	61650.49
1742.00	61504.60
1743.00	61384.45
1744.00	61137.91
1745.00	60954.57
1746.00	61021.67
1747.00	61106.71
1748.00	61201.89
1749.00	61201.89
1750.00	61136.35
1751.00	61074.72
1752.00	60928.05
1753.00	60797.76
1754.00	60666.69
1755.00	60659.66
1756.00	60676.05
1757.00	60669.81
1758.00	60564.48
1759.00	60542.64
1760.00	60524.69
1761.00	60519.23
1762.00	60385.04
1763.00	60262.55
1764.00	60155.67
1765.00	60141.63
1766.00	60150.21
1767.00	60175.17
1768.00	60222.76
1769.00	60234.47
1770.00	60303.90
1771.00	60325.75
1772.00	60268.01
1773.00	60216.52
1774.00	60092.47
1775.00	59994.95
1776.00	59885.73
1777.00	59895.09
1778.00	60009.00
1779.00	60040.20
1780.00	60051.12
1781.00	60006.65
1782.00	60036.30
1783.00	60046.44
1784.00	59994.95
1785.00	59930.98
1786.00	59791.33
1787.00	59790.55
1788.00	59692.24
1789.00	59762.46
1790.00	59711.75
1791.00	59661.82
1792.00	59459.75
1793.00	59327.12
1794.00	59249.88
1795.00	59316.98
1796.00	59267.83
1797.00	59258.46
1798.00	59199.17
1799.00	59171.86
1800.00	59082.92
1801.00	59008.03
1802.00	58969.80
1803.00	58961.22
1804.00	58869.15
1805.00	58843.41
1806.00	58791.14
1807.00	58717.80
1808.00	58481.41
1809.00	58260.62
1810.00	58152.95
1811.00	58081.95
1812.00	57901.73
1813.00	57800.31
1814.00	57730.09
1815.00	57847.90
1816.00	57692.64
1817.00	57604.48
1818.00	57549.09
1819.00	57564.70
1820.00	57521.79
1821.00	57403.20
1822.00	57385.25
1823.00	57322.06
1824.00	57337.66
1825.00	57270.57
1826.00	57302.56
1827.00	57289.29
1828.00	57237.80
1829.00	57131.70
1830.00	56684.65
1831.00	56665.93
1832.00	56583.23
1833.00	56674.51
1834.00	56364.00
1835.00	56221.23
1836.00	56062.07
1837.00	55991.86
1838.00	55828.80
1839.00	55784.33
1840.00	55807.73
1841.00	55831.92
1842.00	55831.14
1843.00	55779.65
1844.00	55590.84
1845.00	55437.93
1846.00	55162.53
1847.00	54998.69
1848.00	54822.37
1849.00	54692.86
1850.00	54605.48
1851.00	54483.77
1852.00	54467.39
1853.00	54499.37
1854.00	54433.84
1855.00	54298.09
1856.00	54073.40
1857.00	54117.87
1858.00	54106.94
1859.00	54092.12
1860.00	53947.01
1861.00	53741.04
1862.00	53439.11
1863.00	53225.34
1864.00	52959.30
1865.00	52978.03
1866.00	52927.31
1867.00	53066.97
1868.00	52874.26
1869.00	52718.23
1870.00	52464.67
1871.00	52376.51
1872.00	52305.51
1873.00	52246.22
1874.00	52169.76
1875.00	52051.95
1876.00	51786.69
1877.00	51564.34
1878.00	51263.97
1879.00	51223.40
1880.00	51170.35
1881.00	51159.43
1882.00	51096.24
1883.00	50912.11
1884.00	50679.62
1885.00	50337.90
1886.00	50174.06
1887.00	50067.96
1888.00	49973.56
1889.00	49860.43
1890.00	49578.01
1891.00	49646.66
1892.00	49663.83
1893.00	49705.96
1894.00	49692.69
1895.00	49647.44
1896.00	49734.04
1897.00	49535.10
1898.00	49273.74
1899.00	49082.59
1900.00	48881.31
1901.00	48694.07
1902.00	48437.39
1903.00	48282.13
1904.00	48334.40
1905.00	48279.01
1906.00	47967.72
1907.00	47574.51
1908.00	47342.02
1909.00	47406.77
1910.00	47439.54
1911.00	47240.59
1912.00	46884.83
1913.00	46594.60
1914.00	46350.41
1915.00	46057.06
1916.00	45678.68
1917.00	45313.55
1918.00	45099.78
1919.00	44929.70
1920.00	44770.55
1921.00	44759.62
1922.00	44591.89
1923.00	44541.95
1924.00	44428.83
1925.00	44183.85
1926.00	43849.16
1927.00	43235.94
1928.00	43117.35
1929.00	42887.98
1930.00	42827.90
1931.00	42563.42
1932.00	42539.24
1933.00	42443.27
1934.00	42393.34
1935.00	42216.24
1936.00	42163.19
1937.00	41855.80
1938.00	41867.50
1939.00	41724.73
1940.00	41622.53
1941.00	41040.51
1942.00	40338.35
1943.00	40013.02
1944.00	39845.28
1945.00	40087.92
1946.00	40062.95
1947.00	39922.52
1948.00	39795.35
1949.00	39498.10
1950.00	39260.15
1951.00	38902.04
1952.00	38726.50
1953.00	38639.12
1954.00	38469.83
1955.00	38149.95
1956.00	37817.60
1957.00	37552.34
1958.00	37373.67
1959.00	37313.60
1960.00	36964.86
1961.00	36552.15
1962.00	36109.78
1963.00	35940.49
1964.00	35936.59
1965.00	35967.79
1966.00	35709.55
1967.00	35483.30
1968.00	35251.59
1969.00	35093.21
1970.00	34756.18
1971.00	34296.65
1972.00	34132.03
1973.00	33986.14
1974.00	33823.86
1975.00	33482.14
1976.00	33238.73
1977.00	33044.46
1978.00	32957.86
1979.00	32889.99
1980.00	32881.41
1981.00	32527.99
1982.00	32231.52
1983.00	31914.76
1984.00	31738.44
1985.00	31447.44
1986.00	31290.62
1987.00	31084.65
1988.00	30941.88
1989.00	30593.14
1990.00	30348.17
1991.00	29979.14
1992.00	29659.27
1993.00	29489.97
1994.00	29638.20
1995.00	29543.80
1996.00	29269.18
1997.00	28899.37
1998.00	28738.66
1999.00	28520.99
2000.00	28349.35
2001.00	28008.41
2002.00	27994.37
2003.00	27722.09
2004.00	27480.23
2005.00	27299.23
2006.00	27148.65
2007.00	27055.03
2008.00	26703.17
2009.00	26371.60
2010.00	26192.94
2011.00	26111.80
2012.00	25956.54
2013.00	25798.16
2014.00	25539.93
2015.00	25317.57
2016.00	25135.79
2017.00	24986.78
2018.00	24925.14
2019.00	24715.28
2020.00	24665.35
2021.00	24586.55
2022.00	24373.56
2023.00	24044.32
2024.00	23776.72
2025.00	23675.30
2026.00	23406.92
2027.00	23249.32
2028.00	23300.03
2029.00	23350.74
2030.00	23275.85
2031.00	22867.03
2032.00	22578.37
2033.00	22395.03
2034.00	22136.01
2035.00	22157.07
2036.00	21887.13
2037.00	21871.53
2038.00	21568.82
2039.00	21405.76
2040.00	21207.59
2041.00	21086.67
2042.00	20898.64
2043.00	20683.31
2044.00	20428.98
2045.00	20320.53
2046.00	20199.60
2047.00	20009.24
>>>>>End Processed Spectral Data<<<<<
