SpectraSuite Data File
++++++++++++++++++++++++++++++++++++
Date: Thu Nov 16 14:16:36 EST 2017
User: cheriyan
Dark Spectrum Present: No
Reference Spectrum Present: No
Number of Sampled Component Spectra: 1
Spectrometers: USB2+H05261
Integration Time (usec): 100000 (USB2+H05261)
Spectra Averaged: 1 (USB2+H05261)
Boxcar Smoothing: 1 (USB2+H05261)
Correct for Electrical Dark: No (USB2+H05261)
Strobe/Lamp Enabled: No (USB2+H05261)
Correct for Detector Non-linearity: No (USB2+H05261)
Correct for Stray Light: No (USB2+H05261)
Number of Pixels in Processed Spectrum: 2048
>>>>>Begin Processed Spectral Data<<<<<
0.00	332.36
1.00	332.36
2.00	283.20
3.00	262.14
4.00	234.05
5.00	241.08
6.00	223.91
7.00	222.35
8.00	229.37
9.00	210.65
10.00	218.45
11.00	234.83
12.00	273.06
13.00	259.02
14.00	243.42
15.00	227.81
16.00	237.95
17.00	233.27
18.00	242.64
19.00	260.58
20.00	284.77
21.00	302.71
22.00	320.65
23.00	358.88
24.00	442.36
25.00	532.08
26.00	614.00
27.00	638.97
28.00	639.75
29.00	658.47
30.00	638.97
31.00	613.22
32.00	610.10
33.00	638.97
34.00	692.02
35.00	660.81
36.00	659.25
37.00	624.14
38.00	636.63
39.00	634.29
40.00	673.29
41.00	725.57
42.00	757.55
43.00	713.86
44.00	665.49
45.00	647.55
46.00	683.44
47.00	695.14
48.00	711.52
49.00	692.02
50.00	723.23
51.00	705.28
52.00	749.75
53.00	734.93
54.00	723.23
55.00	719.32
56.00	722.45
57.00	735.71
58.00	727.13
59.00	724.79
60.00	752.09
61.00	758.33
62.00	758.33
63.00	744.29
64.00	751.31
65.00	789.54
66.00	803.58
67.00	794.22
68.00	760.67
69.00	748.97
70.00	761.45
71.00	769.26
72.00	763.79
73.00	740.39
74.00	746.63
75.00	736.49
76.00	731.81
77.00	738.83
78.00	766.92
79.00	813.73
80.00	812.17
81.00	796.56
82.00	795.78
83.00	807.48
84.00	850.39
85.00	825.43
86.00	819.19
87.00	804.36
88.00	815.29
89.00	800.46
90.00	802.02
91.00	788.76
92.00	811.39
93.00	820.75
94.00	847.27
95.00	833.23
96.00	831.67
97.00	838.69
98.00	872.24
99.00	875.36
100.00	876.14
101.00	861.32
102.00	848.05
103.00	844.93
104.00	834.79
105.00	865.22
106.00	850.39
107.00	857.42
108.00	861.32
109.00	890.18
110.00	907.35
111.00	907.35
112.00	908.13
113.00	898.77
114.00	864.44
115.00	845.71
116.00	869.90
117.00	904.23
118.00	933.09
119.00	918.27
120.00	940.90
121.00	931.53
122.00	951.82
123.00	933.09
124.00	933.87
125.00	944.80
126.00	944.02
127.00	978.34
128.00	982.24
129.00	1007.21
130.00	1005.65
131.00	1009.55
132.00	1013.45
133.00	1018.91
134.00	999.41
135.00	995.51
136.00	986.15
137.00	1002.53
138.00	984.59
139.00	986.15
140.00	1007.99
141.00	1031.40
142.00	1062.60
143.00	1049.34
144.00	1068.06
145.00	1043.10
146.00	1075.09
147.00	1071.97
148.00	1081.33
149.00	1074.31
150.00	1071.97
151.00	1075.87
152.00	1050.90
153.00	1067.28
154.00	1111.75
155.00	1139.84
156.00	1149.98
157.00	1159.35
158.00	1144.52
159.00	1142.18
160.00	1090.69
161.00	1118.78
162.00	1139.06
163.00	1163.25
164.00	1166.37
165.00	1160.13
166.00	1151.54
167.00	1137.50
168.00	1110.19
169.00	1138.28
170.00	1164.81
171.00	1207.72
172.00	1209.28
173.00	1219.42
174.00	1219.42
175.00	1221.76
176.00	1209.28
177.00	1208.50
178.00	1234.24
179.00	1267.01
180.00	1273.25
181.00	1265.45
182.00	1263.11
183.00	1257.65
184.00	1270.91
185.00	1262.33
186.00	1291.20
187.00	1290.42
188.00	1284.95
189.00	1283.39
190.00	1270.91
191.00	1298.22
192.00	1287.29
193.00	1323.96
194.00	1364.53
195.00	1370.77
196.00	1382.48
197.00	1377.80
198.00	1395.74
199.00	1419.14
200.00	1399.64
201.00	1424.61
202.00	1380.14
203.00	1367.65
204.00	1380.14
205.00	1405.10
206.00	1423.83
207.00	1419.14
208.00	1443.33
209.00	1444.11
210.00	1455.81
211.00	1465.18
212.00	1465.96
213.00	1461.27
214.00	1416.02
215.00	1434.75
216.00	1419.92
217.00	1466.74
218.00	1487.80
219.00	1538.51
220.00	1510.43
221.00	1538.51
222.00	1530.71
223.00	1583.76
224.00	1553.34
225.00	1588.44
226.00	1599.37
227.00	1590.78
228.00	1569.72
229.00	1552.56
230.00	1563.48
231.00	1597.03
232.00	1621.99
233.00	1664.12
234.00	1653.98
235.00	1657.10
236.00	1657.88
237.00	1686.75
238.00	1671.14
239.00	1685.19
240.00	1677.38
241.00	1687.53
242.00	1719.51
243.00	1686.75
244.00	1721.07
245.00	1714.83
246.00	1762.42
247.00	1742.92
248.00	1735.12
249.00	1790.51
250.00	1806.11
251.00	1815.48
252.00	1805.33
253.00	1827.18
254.00	1863.07
255.00	1852.14
256.00	1859.17
257.00	1893.49
258.00	1872.43
259.00	1873.99
260.00	1849.02
261.00	1900.52
262.00	1958.25
263.00	1970.73
264.00	1992.58
265.00	1956.69
266.00	1969.17
267.00	1997.26
268.00	2031.58
269.00	2038.61
270.00	2037.83
271.00	2051.09
272.00	2120.53
273.00	2102.58
274.00	2123.65
275.00	2118.96
276.00	2165.78
277.00	2165.78
278.00	2168.90
279.00	2143.15
280.00	2182.94
281.00	2176.70
282.00	2209.47
283.00	2204.00
284.00	2211.81
285.00	2193.86
286.00	2218.05
287.00	2219.61
288.00	2226.63
289.00	2217.27
290.00	2215.71
291.00	2233.65
292.00	2218.83
293.00	2251.60
294.00	2236.77
295.00	2278.12
296.00	2266.42
297.00	2323.37
298.00	2346.78
299.00	2370.18
300.00	2348.34
301.00	2329.61
302.00	2350.68
303.00	2350.68
304.00	2388.91
305.00	2388.13
306.00	2411.53
307.00	2400.61
308.00	2379.54
309.00	2388.91
310.00	2386.57
311.00	2417.77
312.00	2394.37
313.00	2384.23
314.00	2356.92
315.00	2373.30
316.00	2425.58
317.00	2447.42
318.00	2505.15
319.00	2477.85
320.00	2508.27
321.00	2474.73
322.00	2516.08
323.00	2526.22
324.00	2558.21
325.00	2549.62
326.00	2569.13
327.00	2615.94
328.00	2624.52
329.00	2633.10
330.00	2601.90
331.00	2583.17
332.00	2590.97
333.00	2601.90
334.00	2656.51
335.00	2666.65
336.00	2640.12
337.00	2627.64
338.00	2655.73
339.00	2736.09
340.00	2774.32
341.00	2785.24
342.00	2762.61
343.00	2763.39
344.00	2737.65
345.00	2755.59
346.00	2785.24
347.00	2822.69
348.00	2852.33
349.00	2846.09
350.00	2838.29
351.00	2859.35
352.00	2901.48
353.00	2937.37
354.00	2928.79
355.00	2930.35
356.00	2916.31
357.00	2931.13
358.00	2942.83
359.00	2976.38
360.00	3028.65
361.00	3059.86
362.00	3080.93
363.00	3048.94
364.00	3008.37
365.00	3000.57
366.00	3005.25
367.00	3006.03
368.00	3039.58
369.00	3076.24
370.00	3144.12
371.00	3112.13
372.00	3140.22
373.00	3111.35
374.00	3148.02
375.00	3138.66
376.00	3179.23
377.00	3229.16
378.00	3246.32
379.00	3283.77
380.00	3277.53
381.00	3268.17
382.00	3259.59
383.00	3298.60
384.00	3331.36
385.00	3371.15
386.00	3396.90
387.00	3442.93
388.00	3471.01
389.00	3503.00
390.00	3533.43
391.00	3499.88
392.00	3493.64
393.00	3498.32
394.00	3527.19
395.00	3529.53
396.00	3579.46
397.00	3643.43
398.00	3704.29
399.00	3714.43
400.00	3745.64
401.00	3776.06
402.00	3796.35
403.00	3804.15
404.00	3769.82
405.00	3771.38
406.00	3810.39
407.00	3850.18
408.00	3808.83
409.00	3755.00
410.00	3730.03
411.00	3830.68
412.00	3843.94
413.00	3847.06
414.00	3842.38
415.00	3903.23
416.00	3946.14
417.00	3913.38
418.00	3922.74
419.00	3912.60
420.00	3933.66
421.00	3938.34
422.00	3994.51
423.00	3992.17
424.00	3929.76
425.00	3945.36
426.00	3968.77
427.00	4032.74
428.00	3952.38
429.00	3946.14
430.00	3967.99
431.00	4034.30
432.00	4037.42
433.00	4041.33
434.00	4067.07
435.00	4121.68
436.00	4093.60
437.00	4145.87
438.00	4138.07
439.00	4183.32
440.00	4167.71
441.00	4236.37
442.00	4256.65
443.00	4307.37
444.00	4286.30
445.00	4315.95
446.00	4319.85
447.00	4369.00
448.00	4358.08
449.00	4313.61
450.00	4297.22
451.00	4344.81
452.00	4399.43
453.00	4451.70
454.00	4471.20
455.00	4482.91
456.00	4490.71
457.00	4525.04
458.00	4590.57
459.00	4620.22
460.00	4622.56
461.00	4553.12
462.00	4578.87
463.00	4560.14
464.00	4654.55
465.00	4655.33
466.00	4719.30
467.00	4731.00
468.00	4728.66
469.00	4730.22
470.00	4722.42
471.00	4763.77
472.00	4794.20
473.00	4800.44
474.00	4841.01
475.00	4912.78
476.00	4967.40
477.00	4993.14
478.00	5036.83
479.00	5080.52
480.00	5099.25
481.00	5092.23
482.00	5042.29
483.00	4995.48
484.00	5013.43
485.00	5093.01
486.00	5146.06
487.00	5103.93
488.00	5139.82
489.00	5188.97
490.00	5226.42
491.00	5228.76
492.00	5235.00
493.00	5289.61
494.00	5289.61
495.00	5276.35
496.00	5300.53
497.00	5330.96
498.00	5348.90
499.00	5287.27
500.00	5280.25
501.00	5315.36
502.00	5417.56
503.00	5438.62
504.00	5514.30
505.00	5458.13
506.00	5498.70
507.00	5479.19
508.00	5565.01
509.00	5626.65
510.00	5645.37
511.00	5685.94
512.00	5710.91
513.00	5755.38
514.00	5755.38
515.00	5783.46
516.00	5812.33
517.00	5837.30
518.00	5803.75
519.00	5784.24
520.00	5847.44
521.00	5887.23
522.00	5930.92
523.00	5902.05
524.00	5930.14
525.00	5932.48
526.00	5941.06
527.00	5958.22
528.00	5979.29
529.00	5972.27
530.00	5947.30
531.00	5965.25
532.00	6044.82
533.00	6101.78
534.00	6094.76
535.00	6084.61
536.00	6016.74
537.00	6008.16
538.00	6056.53
539.00	6205.54
540.00	6327.25
541.00	6356.11
542.00	6346.75
543.00	6350.65
544.00	6380.30
545.00	6388.10
546.00	6389.66
547.00	6379.52
548.00	6414.63
549.00	6486.40
550.00	6463.78
551.00	6451.30
552.00	6435.69
553.00	6466.12
554.00	6509.03
555.00	6510.59
556.00	6564.42
557.00	6585.49
558.00	6651.02
559.00	6719.68
560.00	6786.77
561.00	6849.19
562.00	6868.69
563.00	6904.58
564.00	6920.18
565.00	7065.30
566.00	7123.03
567.00	7178.42
568.00	7118.35
569.00	7126.15
570.00	7184.66
571.00	7233.04
572.00	7312.61
573.00	7298.57
574.00	7273.60
575.00	7230.70
576.00	7338.36
577.00	7444.46
578.00	7590.36
579.00	7561.49
580.00	7583.34
581.00	7555.25
582.00	7673.06
583.00	7776.82
584.00	7879.80
585.00	7909.45
586.00	7911.01
587.00	7919.59
588.00	7829.87
589.00	7882.14
590.00	7954.70
591.00	8127.90
592.00	8213.72
593.00	8301.10
594.00	8335.43
595.00	8356.49
596.00	8438.41
597.00	8636.58
598.00	8809.78
599.00	8901.06
600.00	8932.26
601.00	8870.63
602.00	8887.79
603.00	8887.79
604.00	9057.09
605.00	9217.03
606.00	9295.83
607.00	9327.82
608.00	9324.69
609.00	9398.81
610.00	9414.41
611.00	9436.26
612.00	9478.39
613.00	9563.43
614.00	9670.31
615.00	9746.77
616.00	9865.36
617.00	9941.82
618.00	10008.91
619.00	10059.62
620.00	10081.47
621.00	10131.40
622.00	10267.93
623.00	10376.38
624.00	10445.03
625.00	10459.07
626.00	10572.20
627.00	10654.12
628.00	10697.03
629.00	10842.92
630.00	11073.07
631.00	11262.66
632.00	11231.45
633.00	11269.68
634.00	11362.52
635.00	11406.21
636.00	11380.46
637.00	11409.33
638.00	11596.57
639.00	11727.64
640.00	11694.10
641.00	11712.04
642.00	11797.08
643.00	11925.81
644.00	12091.99
645.00	12138.80
646.00	12287.03
647.00	12279.23
648.00	12297.17
649.00	12407.18
650.00	12506.26
651.00	12815.21
652.00	12847.20
653.00	12938.48
654.00	12948.62
655.00	13156.15
656.00	13306.73
657.00	13413.61
658.00	13400.35
659.00	13538.44
660.00	13760.79
661.00	13849.73
662.00	13874.70
663.00	13736.60
664.00	13777.17
665.00	13755.33
666.00	13962.08
667.00	14129.03
668.00	14299.89
669.00	14345.14
670.00	14393.51
671.00	14379.47
672.00	14444.23
673.00	14528.49
674.00	14730.55
675.00	14732.89
676.00	14806.23
677.00	14832.76
678.00	14882.69
679.00	15021.56
680.00	15124.54
681.00	15234.55
682.00	15341.43
683.00	15532.58
684.00	15742.44
685.00	15852.45
686.00	15953.87
687.00	16095.86
688.00	16120.83
689.00	16276.09
690.00	16393.89
691.00	16495.32
692.00	16561.63
693.00	16557.73
694.00	16730.15
695.00	16644.33
696.00	16704.40
697.00	16670.08
698.00	16832.35
699.00	16887.75
700.00	17033.64
701.00	17092.93
702.00	17246.63
703.00	17344.15
704.00	17461.96
705.00	17618.77
706.00	17692.89
707.00	17777.93
708.00	17816.16
709.00	17865.31
710.00	17950.35
711.00	18114.19
712.00	18278.02
713.00	18332.64
714.00	18258.52
715.00	18272.56
716.00	18344.34
717.00	18558.11
718.00	18691.52
719.00	18845.21
720.00	18920.89
721.00	19011.39
722.00	19059.76
723.00	19114.38
724.00	19191.61
725.00	19218.92
726.00	19239.98
727.00	19381.98
728.00	19478.72
729.00	19536.45
730.00	19580.14
731.00	19589.50
732.00	19575.46
733.00	19435.03
734.00	19438.15
735.00	19529.43
736.00	19662.84
737.00	19797.81
738.00	19967.89
739.00	20089.60
740.00	20242.51
741.00	20330.67
742.00	20425.86
743.00	20450.82
744.00	20457.84
745.00	20396.99
746.00	20523.38
747.00	20597.49
748.00	20837.79
749.00	20909.57
750.00	20929.07
751.00	20851.05
752.00	21064.82
753.00	21110.85
754.00	21283.27
755.00	21223.20
756.00	21468.17
757.00	21465.05
758.00	21468.95
759.00	21330.86
760.00	21398.74
761.00	21576.62
762.00	21899.61
763.00	22045.51
764.00	22067.35
765.00	21949.54
766.00	21937.84
767.00	21990.89
768.00	21987.77
769.00	22124.30
770.00	22220.27
771.00	22609.58
772.00	22865.47
773.00	22955.19
774.00	22901.36
775.00	22842.85
776.00	22880.30
777.00	22966.12
778.00	22935.69
779.00	22983.28
780.00	23008.25
781.00	23239.96
782.00	23352.30
783.00	23480.25
784.00	23522.38
785.00	23513.02
786.00	23662.82
787.00	23826.65
788.00	23928.86
789.00	23861.76
790.00	23822.75
791.00	23932.76
792.00	23947.58
793.00	23905.45
794.00	24109.86
795.00	24173.83
796.00	24308.02
797.00	24277.60
798.00	24447.68
799.00	24641.94
800.00	24815.92
801.00	25040.61
802.00	25088.98
803.00	25033.59
804.00	24939.19
805.00	25010.18
806.00	25194.31
807.00	25282.47
808.00	25364.39
809.00	25479.85
810.00	25692.84
811.00	25784.12
812.00	25752.91
813.00	25821.57
814.00	25883.98
815.00	25993.99
816.00	25965.12
817.00	25897.25
818.00	25999.45
819.00	26088.39
820.00	26310.74
821.00	26219.46
822.00	26220.24
823.00	26238.97
824.00	26442.59
825.00	26589.27
826.00	26590.83
827.00	26785.87
828.00	26821.76
829.00	27062.05
830.00	26975.45
831.00	27162.70
832.00	27202.49
833.00	27296.89
834.00	27313.27
835.00	27420.16
836.00	27516.90
837.00	27675.27
838.00	27615.20
839.00	27661.23
840.00	27669.03
841.00	27828.97
842.00	27965.50
843.00	28016.21
844.00	27928.83
845.00	27910.11
846.00	27984.23
847.00	28283.81
848.00	28381.34
849.00	28535.81
850.00	28357.93
851.00	28419.56
852.00	28237.78
853.00	28379.00
854.00	28285.37
855.00	28549.85
856.00	28585.74
857.00	28787.03
858.00	28744.12
859.00	28760.50
860.00	28651.28
861.00	28663.76
862.00	28909.52
863.00	29242.65
864.00	29403.37
865.00	29411.17
866.00	29537.56
867.00	29744.31
868.00	29979.14
869.00	30029.85
870.00	30014.25
871.00	29946.37
872.00	29950.28
873.00	30003.33
874.00	30139.08
875.00	30177.31
876.00	30270.93
877.00	30391.08
878.00	30558.03
879.00	30370.01
880.00	30298.23
881.00	30291.99
882.00	30572.86
883.00	30602.50
884.00	30420.72
885.00	30305.26
886.00	30331.00
887.00	30451.93
888.00	30573.64
889.00	30632.15
890.00	30697.69
891.00	30693.01
892.00	30907.55
893.00	31027.70
894.00	31027.70
895.00	30895.07
896.00	30899.75
897.00	31036.28
898.00	31096.36
899.00	31405.31
900.00	31649.50
901.00	31943.63
902.00	31769.65
903.00	31840.65
904.00	31769.65
905.00	31972.50
906.00	31969.38
907.00	31886.68
908.00	31805.54
909.00	32155.84
910.00	32318.12
911.00	32436.70
912.00	31991.22
913.00	32002.14
914.00	31935.83
915.00	32126.19
916.00	32130.87
917.00	32343.86
918.00	32399.26
919.00	32289.25
920.00	32183.15
921.00	32240.88
922.00	32524.08
923.00	32648.91
924.00	32741.75
925.00	32738.63
926.00	32879.07
927.00	32806.51
928.00	32887.65
929.00	32972.69
930.00	33156.81
931.00	33323.77
932.00	33483.70
933.00	33537.54
934.00	33415.05
935.00	33131.06
936.00	33101.42
937.00	33264.47
938.00	33387.74
939.00	33559.38
940.00	33743.50
941.00	33787.19
942.00	33859.75
943.00	33788.75
944.00	33856.63
945.00	33770.03
946.00	33722.44
947.00	33748.96
948.00	33901.88
949.00	33976.00
950.00	34253.74
951.00	34283.39
952.00	34335.66
953.00	34231.12
954.00	34249.84
955.00	34242.82
956.00	34387.93
957.00	34600.92
958.00	35181.37
959.00	35407.62
960.00	35484.86
961.00	35069.81
962.00	34920.79
963.00	34976.19
964.00	35285.92
965.00	35385.78
966.00	35413.87
967.00	35502.81
968.00	35764.17
969.00	35653.38
970.00	35724.38
971.00	35654.94
972.00	35725.16
973.00	35570.68
974.00	35658.06
975.00	35847.64
976.00	35800.83
977.00	35684.59
978.00	35651.82
979.00	35782.11
980.00	35615.93
981.00	35739.20
982.00	35810.20
983.00	36155.82
984.00	36195.60
985.00	36304.05
986.00	36404.69
987.00	36215.11
988.00	36336.04
989.00	36099.64
990.00	36526.40
991.00	36326.67
992.00	36503.78
993.00	36130.07
994.00	36290.79
995.00	36428.88
996.00	36889.96
997.00	37233.24
998.00	37472.76
999.00	37447.01
1000.00	37465.74
1001.00	37359.63
1002.00	37397.08
1003.00	37043.66
1004.00	37153.66
1005.00	37119.34
1006.00	37400.20
1007.00	37310.48
1008.00	37546.09
1009.00	37578.86
1010.00	37601.49
1011.00	37472.76
1012.00	37574.96
1013.00	37516.45
1014.00	37539.85
1015.00	37525.03
1016.00	37682.62
1017.00	37839.44
1018.00	37958.81
1019.00	38189.74
1020.00	38355.14
1021.00	38428.48
1022.00	38505.71
1023.00	38361.38
1024.00	38322.37
1025.00	38272.44
1026.00	38444.86
1027.00	38530.68
1028.00	38628.98
1029.00	38483.09
1030.00	38667.99
1031.00	38820.13
1032.00	38967.58
1033.00	38966.80
1034.00	38831.05
1035.00	38926.23
1036.00	38794.38
1037.00	38848.21
1038.00	38856.01
1039.00	38956.66
1040.00	39183.69
1041.00	39536.33
1042.00	39769.60
1043.00	39895.99
1044.00	39685.34
1045.00	39553.49
1046.00	39198.51
1047.00	39174.33
1048.00	39338.94
1049.00	39605.77
1050.00	39867.91
1051.00	40015.36
1052.00	40294.66
1053.00	40368.78
1054.00	40512.33
1055.00	40365.66
1056.00	40312.61
1057.00	40175.30
1058.00	40282.96
1059.00	40302.46
1060.00	40596.59
1061.00	40474.10
1062.00	40399.21
1063.00	40271.26
1064.00	40419.49
1065.00	40685.53
1066.00	40797.88
1067.00	41081.86
1068.00	41021.01
1069.00	40851.71
1070.00	40579.43
1071.00	40640.28
1072.00	40804.12
1073.00	40965.62
1074.00	41003.06
1075.00	40889.16
1076.00	40893.06
1077.00	40921.93
1078.00	40990.58
1079.00	41042.07
1080.00	41081.86
1081.00	41286.27
1082.00	41316.70
1083.00	41251.94
1084.00	41089.66
1085.00	41155.98
1086.00	41303.43
1087.00	41500.82
1088.00	41605.36
1089.00	41726.29
1090.00	41833.17
1091.00	41835.52
1092.00	41738.77
1093.00	41638.13
1094.00	41773.10
1095.00	41989.21
1096.00	41987.65
1097.00	41912.75
1098.00	41909.63
1099.00	41959.56
1100.00	42097.66
1101.00	42100.78
1102.00	42325.47
1103.00	42358.24
1104.00	42498.67
1105.00	42567.32
1106.00	42573.56
1107.00	42544.70
1108.00	42498.67
1109.00	42493.21
1110.00	42633.64
1111.00	42543.92
1112.00	42452.64
1113.00	42364.48
1114.00	42493.99
1115.00	42548.60
1116.00	42491.65
1117.00	42440.93
1118.00	42473.70
1119.00	42454.20
1120.00	42302.06
1121.00	42344.97
1122.00	42608.67
1123.00	42845.85
1124.00	42881.74
1125.00	42605.55
1126.00	42521.29
1127.00	42559.52
1128.00	42756.91
1129.00	42780.31
1130.00	42802.16
1131.00	42753.79
1132.00	43005.78
1133.00	43012.80
1134.00	43107.21
1135.00	42988.62
1136.00	43043.23
1137.00	42831.02
1138.00	42890.32
1139.00	42952.73
1140.00	43298.35
1141.00	43393.53
1142.00	43509.78
1143.00	43476.23
1144.00	43705.60
1145.00	43796.10
1146.00	43817.95
1147.00	43445.80
1148.00	43278.85
1149.00	43300.69
1150.00	43421.62
1151.00	43568.29
1152.00	43777.38
1153.00	43958.38
1154.00	43962.28
1155.00	43860.08
1156.00	43647.09
1157.00	43380.27
1158.00	43125.93
1159.00	43233.60
1160.00	43474.67
1161.00	43860.86
1162.00	43928.73
1163.00	43986.47
1164.00	43818.73
1165.00	43851.50
1166.00	43717.31
1167.00	43828.87
1168.00	44001.29
1169.00	44044.20
1170.00	43900.65
1171.00	43779.72
1172.00	43705.60
1173.00	43620.56
1174.00	43435.66
1175.00	43437.22
1176.00	43338.14
1177.00	43245.30
1178.00	43277.29
1179.00	43439.56
1180.00	43710.28
1181.00	43774.26
1182.00	44041.86
1183.00	44085.55
1184.00	44128.46
1185.00	44128.46
1186.00	44178.39
1187.00	44115.98
1188.00	44001.29
1189.00	43959.94
1190.00	44075.41
1191.00	44095.69
1192.00	44194.78
1193.00	44335.99
1194.00	44457.70
1195.00	44382.02
1196.00	44251.73
1197.00	44158.11
1198.00	44136.26
1199.00	44261.87
1200.00	44384.36
1201.00	44453.01
1202.00	44470.96
1203.00	44501.39
1204.00	44553.66
1205.00	44621.53
1206.00	44599.69
1207.00	44669.90
1208.00	44632.46
1209.00	44533.37
1210.00	44398.40
1211.00	44357.83
1212.00	44544.30
1213.00	44680.05
1214.00	44564.58
1215.00	44540.39
1216.00	44362.51
1217.00	44381.24
1218.00	44188.53
1219.00	44249.39
1220.00	44268.11
1221.00	44097.25
1222.00	43882.70
1223.00	43908.45
1224.00	44128.46
1225.00	44215.06
1226.00	44328.97
1227.00	44424.93
1228.00	44626.21
1229.00	44496.70
1230.00	44326.63
1231.00	44218.18
1232.00	44243.93
1233.00	44414.79
1234.00	44319.60
1235.00	44477.20
1236.00	44648.06
1237.00	44775.23
1238.00	44786.15
1239.00	44815.02
1240.00	45127.09
1241.00	45284.68
1242.00	45593.64
1243.00	45650.59
1244.00	45574.91
1245.00	45409.51
1246.00	45553.85
1247.00	45807.40
1248.00	45664.63
1249.00	45392.35
1250.00	45173.12
1251.00	45236.31
1252.00	45292.49
1253.00	45412.63
1254.00	45356.46
1255.00	45397.03
1256.00	45481.29
1257.00	45624.84
1258.00	45762.15
1259.00	45602.22
1260.00	45510.16
1261.00	45563.21
1262.00	45814.43
1263.00	46134.30
1264.00	46196.71
1265.00	46114.01
1266.00	46100.75
1267.00	45954.86
1268.00	46034.44
1269.00	45895.56
1270.00	45911.95
1271.00	45749.67
1272.00	45839.39
1273.00	46017.27
1274.00	46332.46
1275.00	46287.21
1276.00	46094.51
1277.00	45901.03
1278.00	46056.28
1279.00	46285.65
1280.00	46227.92
1281.00	46212.32
1282.00	46285.65
1283.00	46539.99
1284.00	46481.48
1285.00	46524.39
1286.00	46512.69
1287.00	46551.70
1288.00	46367.57
1289.00	46495.52
1290.00	46513.47
1291.00	46594.60
1292.00	46567.30
1293.00	46692.91
1294.00	46731.14
1295.00	46532.19
1296.00	46446.37
1297.00	46291.90
1298.00	46414.38
1299.00	46671.06
1300.00	47085.34
1301.00	47390.39
1302.00	47267.90
1303.00	47128.25
1304.00	46995.62
1305.00	46863.77
1306.00	46761.56
1307.00	46571.98
1308.00	46474.46
1309.00	46330.12
1310.00	46416.72
1311.00	46755.32
1312.00	47238.25
1313.00	47469.97
1314.00	47591.67
1315.00	47572.95
1316.00	47592.45
1317.00	47497.27
1318.00	47409.89
1319.00	47237.47
1320.00	47203.14
1321.00	47269.46
1322.00	47484.01
1323.00	47526.14
1324.00	47718.84
1325.00	47824.17
1326.00	47941.19
1327.00	47966.94
1328.00	47862.40
1329.00	47887.36
1330.00	47662.67
1331.00	47674.37
1332.00	47558.91
1333.00	47557.35
1334.00	47501.95
1335.00	47434.08
1336.00	47395.07
1337.00	47266.34
1338.00	47319.39
1339.00	47160.23
1340.00	47256.20
1341.00	47212.51
1342.00	47504.29
1343.00	47607.28
1344.00	47596.35
1345.00	47496.49
1346.00	47359.18
1347.00	47359.96
1348.00	47258.54
1349.00	47322.51
1350.00	47349.04
1351.00	47353.72
1352.00	47320.95
1353.00	47477.77
1354.00	47510.53
1355.00	47601.04
1356.00	47591.67
1357.00	47749.27
1358.00	47721.18
1359.00	47813.24
1360.00	47899.06
1361.00	48087.09
1362.00	48076.94
1363.00	47983.32
1364.00	47803.88
1365.00	47625.22
1366.00	47543.30
1367.00	47506.63
1368.00	47562.81
1369.00	47769.55
1370.00	47887.36
1371.00	47864.74
1372.00	47826.51
1373.00	47923.25
1374.00	48268.87
1375.00	48259.51
1376.00	48211.13
1377.00	47991.90
1378.00	47986.44
1379.00	47883.46
1380.00	47882.68
1381.00	47821.83
1382.00	47865.52
1383.00	47759.41
1384.00	47637.70
1385.00	47537.84
1386.00	47498.83
1387.00	47525.36
1388.00	47539.40
1389.00	47476.99
1390.00	47544.86
1391.00	47654.09
1392.00	47956.02
1393.00	47960.70
1394.00	48020.77
1395.00	47906.08
1396.00	48094.89
1397.00	47917.79
1398.00	47818.71
1399.00	47724.30
1400.00	47878.00
1401.00	47908.43
1402.00	47852.25
1403.00	47625.22
1404.00	47603.38
1405.00	47633.02
1406.00	47737.57
1407.00	47732.11
1408.00	47743.81
1409.00	47835.09
1410.00	47976.30
1411.00	47970.06
1412.00	48009.85
1413.00	48015.31
1414.00	48163.54
1415.00	48307.88
1416.00	48375.75
1417.00	48151.06
1418.00	47903.74
1419.00	47909.21
1420.00	48054.32
1421.00	48263.41
1422.00	48352.35
1423.00	48359.37
1424.00	48249.36
1425.00	48219.72
1426.00	48164.32
1427.00	48143.26
1428.00	48017.65
1429.00	47840.55
1430.00	47931.05
1431.00	47864.74
1432.00	47969.28
1433.00	47619.76
1434.00	47494.15
1435.00	47437.98
1436.00	47516.78
1437.00	47462.94
1438.00	47436.42
1439.00	47667.35
1440.00	47638.48
1441.00	47608.84
1442.00	47516.78
1443.00	47599.47
1444.00	47668.13
1445.00	47714.94
1446.00	47679.05
1447.00	47711.04
1448.00	47583.87
1449.00	47697.00
1450.00	47738.35
1451.00	47792.18
1452.00	47714.16
1453.00	47611.96
1454.00	47487.13
1455.00	47469.97
1456.00	47461.38
1457.00	47409.11
1458.00	47553.44
1459.00	47412.23
1460.00	47405.99
1461.00	47140.73
1462.00	47052.57
1463.00	46933.98
1464.00	46875.47
1465.00	47036.97
1466.00	47297.55
1467.00	47530.04
1468.00	47661.11
1469.00	47828.85
1470.00	47941.19
1471.00	47985.66
1472.00	47781.26
1473.00	47721.96
1474.00	47627.56
1475.00	47572.95
1476.00	47491.81
1477.00	47429.40
1478.00	47513.66
1479.00	47413.79
1480.00	47377.90
1481.00	47283.50
1482.00	47240.59
1483.00	47194.56
1484.00	47085.34
1485.00	47078.32
1486.00	46989.38
1487.00	46905.90
1488.00	46864.55
1489.00	46921.50
1490.00	47028.38
1491.00	47273.36
1492.00	47384.15
1493.00	47357.62
1494.00	47323.29
1495.00	47429.40
1496.00	47679.83
1497.00	47604.94
1498.00	47334.21
1499.00	47188.32
1500.00	47070.51
1501.00	47145.41
1502.00	47029.94
1503.00	46943.34
1504.00	46834.12
1505.00	46809.93
1506.00	46816.18
1507.00	46871.57
1508.00	46856.74
1509.00	47058.81
1510.00	47053.35
1511.00	47242.93
1512.00	47003.42
1513.00	46903.56
1514.00	46637.51
1515.00	46689.01
1516.00	46686.67
1517.00	46680.42
1518.00	46742.84
1519.00	46703.83
1520.00	46752.98
1521.00	46600.85
1522.00	46515.03
1523.00	46374.59
1524.00	46302.04
1525.00	46465.88
1526.00	46448.71
1527.00	46429.99
1528.00	46213.88
1529.00	46141.32
1530.00	46192.03
1531.00	46355.09
1532.00	46374.59
1533.00	46466.66
1534.00	46523.61
1535.00	46799.01
1536.00	46875.47
1537.00	46724.89
1538.00	46691.35
1539.00	46668.72
1540.00	46897.31
1541.00	47087.68
1542.00	47136.83
1543.00	47140.73
1544.00	47016.68
1545.00	47007.32
1546.00	47022.14
1547.00	46916.82
1548.00	46911.36
1549.00	46789.65
1550.00	46730.36
1551.00	46582.12
1552.00	46728.02
1553.00	46831.78
1554.00	46931.64
1555.00	46724.89
1556.00	46602.41
1557.00	46521.27
1558.00	46576.66
1559.00	46684.33
1560.00	46497.86
1561.00	46252.89
1562.00	46038.34
1563.00	45913.51
1564.00	45915.07
1565.00	45823.79
1566.00	45904.15
1567.00	45858.90
1568.00	45794.14
1569.00	45740.31
1570.00	45683.36
1571.00	45550.73
1572.00	45431.36
1573.00	45397.03
1574.00	45526.54
1575.00	45731.73
1576.00	45769.18
1577.00	45826.91
1578.00	45793.36
1579.00	45894.00
1580.00	45842.51
1581.00	45841.73
1582.00	45766.06
1583.00	45942.38
1584.00	46028.20
1585.00	46054.72
1586.00	45951.74
1587.00	45652.15
1588.00	45696.62
1589.00	45712.22
1590.00	45798.04
1591.00	45649.03
1592.00	45576.47
1593.00	45510.16
1594.00	45606.90
1595.00	45619.38
1596.00	45918.97
1597.00	45877.62
1598.00	45679.46
1599.00	45326.03
1600.00	45141.91
1601.00	45044.39
1602.00	45148.93
1603.00	45337.74
1604.00	45532.00
1605.00	45526.54
1606.00	45530.44
1607.00	45382.21
1608.00	45446.18
1609.00	45376.75
1610.00	45457.88
1611.00	45418.88
1612.00	45433.70
1613.00	45482.85
1614.00	45410.29
1615.00	45362.70
1616.00	45095.10
1617.00	44990.56
1618.00	44935.16
1619.00	45141.13
1620.00	45378.31
1621.00	45521.86
1622.00	45569.45
1623.00	45486.75
1624.00	45400.15
1625.00	45263.62
1626.00	45173.90
1627.00	45038.93
1628.00	45044.39
1629.00	45093.54
1630.00	45173.90
1631.00	45293.27
1632.00	45219.15
1633.00	45301.07
1634.00	45383.77
1635.00	45479.73
1636.00	45437.60
1637.00	45279.22
1638.00	45287.81
1639.00	45397.81
1640.00	45365.82
1641.00	45310.43
1642.00	45121.63
1643.00	45125.53
1644.00	44880.55
1645.00	44577.84
1646.00	44392.94
1647.00	44358.61
1648.00	44438.97
1649.00	44524.01
1650.00	44449.89
1651.00	44353.15
1652.00	44378.90
1653.00	44598.13
1654.00	44677.71
1655.00	44700.33
1656.00	44468.62
1657.00	44569.26
1658.00	44366.41
1659.00	44392.16
1660.00	44327.41
1661.00	44517.77
1662.00	44582.52
1663.00	44609.05
1664.00	44360.95
1665.00	44382.02
1666.00	44364.07
1667.00	44484.22
1668.00	44641.82
1669.00	44776.01
1670.00	44667.56
1671.00	44453.01
1672.00	44358.61
1673.00	44449.11
1674.00	44474.08
1675.00	44447.55
1676.00	44516.21
1677.00	44558.34
1678.00	44411.67
1679.00	44385.92
1680.00	44378.12
1681.00	44385.14
1682.00	44265.77
1683.00	44204.92
1684.00	44130.02
1685.00	44206.48
1686.00	44198.68
1687.00	44253.29
1688.00	44183.07
1689.00	44176.05
1690.00	44108.18
1691.00	44053.56
1692.00	43829.65
1693.00	43673.62
1694.00	43313.17
1695.00	43147.78
1696.00	43058.06
1697.00	43200.05
1698.00	43320.20
1699.00	43414.60
1700.00	43575.31
1701.00	43550.35
1702.00	43584.68
1703.00	43397.43
1704.00	43432.54
1705.00	43200.05
1706.00	43274.16
1707.00	43294.45
1708.00	43522.26
1709.00	43296.79
1710.00	43100.97
1711.00	43026.85
1712.00	42994.86
1713.00	42831.02
1714.00	42693.71
1715.00	42715.56
1716.00	42841.95
1717.00	42770.17
1718.00	42688.25
1719.00	42706.19
1720.00	42758.47
1721.00	42940.25
1722.00	42951.95
1723.00	42884.86
1724.00	42510.37
1725.00	42270.86
1726.00	41961.90
1727.00	41983.75
1728.00	41692.74
1729.00	41788.70
1730.00	41667.00
1731.00	41846.44
1732.00	41767.64
1733.00	41632.67
1734.00	41478.19
1735.00	41421.24
1736.00	41492.24
1737.00	41594.44
1738.00	41689.62
1739.00	41918.99
1740.00	42035.24
1741.00	42131.98
1742.00	41798.85
1743.00	41269.89
1744.00	40829.87
1745.00	40446.80
1746.00	40495.17
1747.00	40326.65
1748.00	40494.39
1749.00	40176.86
1750.00	39882.73
1751.00	39513.70
1752.00	39321.00
1753.00	39153.26
1754.00	39288.23
1755.00	39314.76
1756.00	39427.88
1757.00	39346.75
1758.00	39230.50
1759.00	39201.63
1760.00	39066.66
1761.00	39285.89
1762.00	39265.61
1763.00	39218.02
1764.00	38947.29
1765.00	38916.09
1766.00	38935.59
1767.00	38880.98
1768.00	38733.53
1769.00	38555.64
1770.00	38657.85
1771.00	38714.80
1772.00	38825.59
1773.00	38784.24
1774.00	38699.98
1775.00	38488.55
1776.00	38273.22
1777.00	37920.58
1778.00	37862.07
1779.00	37756.74
1780.00	37741.14
1781.00	37429.85
1782.00	37280.05
1783.00	37205.16
1784.00	37156.78
1785.00	37193.45
1786.00	37045.22
1787.00	37035.86
1788.00	36963.30
1789.00	37090.47
1790.00	36952.38
1791.00	36706.62
1792.00	36372.71
1793.00	36159.72
1794.00	35963.11
1795.00	35774.31
1796.00	35529.33
1797.00	35299.96
1798.00	35383.44
1799.00	35421.67
1800.00	35446.63
1801.00	35120.52
1802.00	35077.61
1803.00	34884.90
1804.00	34923.91
1805.00	34678.16
1806.00	34618.86
1807.00	34440.98
1808.00	34198.35
1809.00	34020.47
1810.00	33903.44
1811.00	33819.96
1812.00	33740.38
1813.00	33672.51
1814.00	33522.71
1815.00	33255.11
1816.00	33030.42
1817.00	32950.06
1818.00	32829.91
1819.00	32853.32
1820.00	32747.22
1821.00	32680.90
1822.00	32518.62
1823.00	32406.28
1824.00	32194.07
1825.00	31818.80
1826.00	31533.26
1827.00	31400.63
1828.00	31270.34
1829.00	31319.49
1830.00	31001.96
1831.00	31094.02
1832.00	30991.81
1833.00	31083.09
1834.00	30810.81
1835.00	30545.55
1836.00	30142.98
1837.00	29929.99
1838.00	29638.98
1839.00	29679.55
1840.00	29448.62
1841.00	29296.49
1842.00	28945.41
1843.00	28631.77
1844.00	28391.48
1845.00	28347.01
1846.00	28297.08
1847.00	28341.55
1848.00	28158.20
1849.00	28135.58
1850.00	27929.61
1851.00	27780.60
1852.00	27567.61
1853.00	27373.35
1854.00	27069.08
1855.00	26778.85
1856.00	26632.18
1857.00	26722.68
1858.00	26547.92
1859.00	26412.17
1860.00	26172.65
1861.00	26110.24
1862.00	25908.17
1863.00	25774.76
1864.00	25677.24
1865.00	25536.02
1866.00	25419.00
1867.00	25177.92
1868.00	24983.66
1869.00	24806.56
1870.00	24659.10
1871.00	24542.08
1872.00	24372.00
1873.00	24091.91
1874.00	23942.12
1875.00	23713.53
1876.00	23586.36
1877.00	23415.50
1878.00	23292.23
1879.00	23204.07
1880.00	23064.42
1881.00	23034.77
1882.00	22866.25
1883.00	22734.40
1884.00	22621.28
1885.00	22488.65
1886.00	22332.61
1887.00	22108.70
1888.00	21994.01
1889.00	21835.64
1890.00	21653.86
1891.00	21522.01
1892.00	21394.06
1893.00	21383.13
1894.00	21305.90
1895.00	21181.85
1896.00	20948.57
1897.00	20719.98
1898.00	20587.35
1899.00	20483.59
1900.00	20403.23
1901.00	20279.18
1902.00	20201.16
1903.00	20136.41
1904.00	19892.21
1905.00	19613.69
1906.00	19373.39
1907.00	19378.86
1908.00	19328.14
1909.00	19242.32
1910.00	19025.43
1911.00	18865.50
1912.00	18715.70
1913.00	18723.51
1914.00	18579.95
1915.00	18571.37
1916.00	18353.70
1917.00	18328.74
1918.00	18142.27
1919.00	18013.54
1920.00	17923.82
1921.00	17754.52
1922.00	17757.64
1923.00	17559.48
1924.00	17419.05
1925.00	17181.87
1926.00	17110.88
1927.00	17003.99
1928.00	16959.52
1929.00	16901.01
1930.00	16748.87
1931.00	16657.59
1932.00	16418.86
1933.00	16487.51
1934.00	16384.53
1935.00	16400.91
1936.00	16287.79
1937.00	16194.95
1938.00	16127.85
1939.00	16099.76
1940.00	16023.31
1941.00	15826.70
1942.00	15669.89
1943.00	15594.21
1944.00	15541.94
1945.00	15495.13
1946.00	15378.10
1947.00	15288.38
1948.00	15046.52
1949.00	14934.18
1950.00	14842.90
1951.00	14776.58
1952.00	14642.39
1953.00	14515.22
1954.00	14491.04
1955.00	14406.78
1956.00	14228.90
1957.00	14132.15
1958.00	14014.35
1959.00	13991.72
1960.00	13787.32
1961.00	13763.13
1962.00	13738.94
1963.00	13788.10
1964.00	13630.50
1965.00	13510.35
1966.00	13439.36
1967.00	13481.49
1968.00	13418.29
1969.00	13299.70
1970.00	13154.59
1971.00	13005.58
1972.00	12925.22
1973.00	12918.98
1974.00	12929.12
1975.00	12809.75
1976.00	12677.12
1977.00	12631.09
1978.00	12638.89
1979.00	12524.99
1980.00	12368.17
1981.00	12300.30
1982.00	12315.12
1983.00	12269.09
1984.00	12145.82
1985.00	12034.25
1986.00	11925.81
1987.00	11928.15
1988.00	11818.93
1989.00	11741.69
1990.00	11705.02
1991.00	11630.90
1992.00	11574.73
1993.00	11346.14
1994.00	11289.96
1995.00	11273.58
1996.00	11179.96
1997.00	11125.35
1998.00	11069.17
1999.00	11069.17
2000.00	10981.79
2001.00	10885.05
2002.00	10911.58
2003.00	10943.56
2004.00	10903.00
2005.00	10821.86
2006.00	10632.27
2007.00	10613.55
2008.00	10603.41
2009.00	10643.20
2010.00	10494.96
2011.00	10414.60
2012.00	10448.93
2013.00	10491.06
2014.00	10397.44
2015.00	10268.71
2016.00	10276.51
2017.00	10282.75
2018.00	10296.80
2019.00	10149.34
2020.00	10069.76
2021.00	10003.45
2022.00	9962.10
2023.00	9856.00
2024.00	9703.08
2025.00	9644.57
2026.00	9561.87
2027.00	9525.20
2028.00	9499.45
2029.00	9536.90
2030.00	9534.56
2031.00	9472.93
2032.00	9376.97
2033.00	9249.80
2034.00	9213.91
2035.00	9146.81
2036.00	9124.97
2037.00	9050.07
2038.00	9013.40
2039.00	9006.38
2040.00	8934.61
2041.00	8943.97
2042.00	8865.17
2043.00	8843.32
2044.00	8796.51
2045.00	8765.31
2046.00	8813.68
2047.00	8910.42
>>>>>End Processed Spectral Data<<<<<
