SpectraSuite Data File
++++++++++++++++++++++++++++++++++++
Date: Thu Nov 16 14:15:46 EST 2017
User: cheriyan
Dark Spectrum Present: No
Reference Spectrum Present: No
Number of Sampled Component Spectra: 1
Spectrometers: USB2+H05261
Integration Time (usec): 100000 (USB2+H05261)
Spectra Averaged: 1 (USB2+H05261)
Boxcar Smoothing: 1 (USB2+H05261)
Correct for Electrical Dark: No (USB2+H05261)
Strobe/Lamp Enabled: No (USB2+H05261)
Correct for Detector Non-linearity: No (USB2+H05261)
Correct for Stray Light: No (USB2+H05261)
Number of Pixels in Processed Spectrum: 2048
>>>>>Begin Processed Spectral Data<<<<<
0.00	339.38
1.00	339.38
2.00	298.03
3.00	247.32
4.00	208.31
5.00	198.17
6.00	205.97
7.00	212.99
8.00	230.15
9.00	231.71
10.00	230.93
11.00	237.95
12.00	252.00
13.00	255.90
14.00	246.54
15.00	247.32
16.00	242.64
17.00	277.74
18.00	277.74
19.00	271.50
20.00	257.46
21.00	261.36
22.00	269.94
23.00	305.83
24.00	386.19
25.00	518.04
26.00	589.03
27.00	635.07
28.00	621.80
29.00	631.94
30.00	631.16
31.00	627.26
32.00	641.31
33.00	619.46
34.00	670.95
35.00	666.27
36.00	704.50
37.00	674.07
38.00	678.76
39.00	684.22
40.00	674.07
41.00	684.22
42.00	663.93
43.00	699.04
44.00	698.26
45.00	723.23
46.00	726.35
47.00	763.79
48.00	728.69
49.00	716.98
50.00	699.04
51.00	755.21
52.00	781.74
53.00	786.42
54.00	775.50
55.00	732.59
56.00	711.52
57.00	696.70
58.00	721.67
59.00	708.40
60.00	727.91
61.00	753.65
62.00	769.26
63.00	766.14
64.00	734.15
65.00	759.89
66.00	758.33
67.00	767.70
68.00	753.65
69.00	743.51
70.00	746.63
71.00	763.01
72.00	772.38
73.00	776.28
74.00	753.65
75.00	765.36
76.00	755.21
77.00	742.73
78.00	732.59
79.00	739.61
80.00	786.42
81.00	809.05
82.00	820.75
83.00	784.08
84.00	798.12
85.00	793.44
86.00	813.73
87.00	791.10
88.00	826.99
89.00	820.75
90.00	833.23
91.00	826.99
92.00	846.49
93.00	834.01
94.00	839.47
95.00	848.83
96.00	835.57
97.00	814.51
98.00	807.48
99.00	817.63
100.00	859.76
101.00	853.52
102.00	887.84
103.00	868.34
104.00	841.81
105.00	830.11
106.00	844.93
107.00	850.39
108.00	847.27
109.00	848.05
110.00	889.40
111.00	911.25
112.00	908.91
113.00	904.23
114.00	894.08
115.00	892.52
116.00	944.80
117.00	957.28
118.00	958.84
119.00	947.92
120.00	951.82
121.00	951.04
122.00	940.12
123.00	941.68
124.00	950.26
125.00	958.06
126.00	960.40
127.00	978.34
128.00	955.72
129.00	995.51
130.00	999.41
131.00	1024.37
132.00	1016.57
133.00	1028.28
134.00	1039.98
135.00	1014.23
136.00	1012.67
137.00	1020.47
138.00	1015.79
139.00	1039.98
140.00	1032.18
141.00	1067.28
142.00	1043.10
143.00	1093.81
144.00	1093.03
145.00	1103.17
146.00	1043.88
147.00	1054.80
148.00	1065.72
149.00	1108.63
150.00	1109.41
151.00	1106.29
152.00	1110.97
153.00	1100.83
154.00	1108.63
155.00	1119.56
156.00	1125.80
157.00	1150.76
158.00	1137.50
159.00	1177.29
160.00	1156.22
161.00	1155.44
162.00	1151.54
163.00	1185.09
164.00	1198.35
165.00	1199.91
166.00	1209.28
167.00	1226.44
168.00	1242.04
169.00	1245.17
170.00	1248.29
171.00	1232.68
172.00	1203.04
173.00	1208.50
174.00	1213.96
175.00	1222.54
176.00	1219.42
177.00	1217.08
178.00	1220.20
179.00	1236.58
180.00	1251.41
181.00	1274.81
182.00	1277.93
183.00	1287.29
184.00	1282.61
185.00	1251.41
186.00	1261.55
187.00	1252.19
188.00	1278.71
189.00	1274.03
190.00	1298.22
191.00	1286.51
192.00	1295.88
193.00	1335.67
194.00	1374.67
195.00	1400.42
196.00	1404.32
197.00	1386.38
198.00	1403.54
199.00	1374.67
200.00	1375.45
201.00	1341.91
202.00	1366.87
203.00	1426.17
204.00	1453.47
205.00	1472.20
206.00	1445.67
207.00	1434.75
208.00	1428.51
209.00	1439.43
210.00	1469.08
211.00	1499.50
212.00	1536.17
213.00	1522.13
214.00	1510.43
215.00	1500.28
216.00	1518.23
217.00	1535.39
218.00	1548.65
219.00	1558.80
220.00	1567.38
221.00	1556.46
222.00	1565.04
223.00	1566.60
224.00	1608.73
225.00	1611.07
226.00	1602.49
227.00	1591.56
228.00	1618.87
229.00	1633.69
230.00	1626.67
231.00	1622.77
232.00	1650.08
233.00	1668.80
234.00	1653.20
235.00	1645.40
236.00	1667.24
237.00	1694.55
238.00	1699.23
239.00	1708.59
240.00	1742.92
241.00	1757.74
242.00	1745.26
243.00	1714.83
244.00	1734.34
245.00	1722.63
246.00	1791.29
247.00	1789.73
248.00	1831.86
249.00	1804.55
250.00	1801.43
251.00	1823.28
252.00	1855.26
253.00	1873.99
254.00	1884.91
255.00	1885.69
256.00	1915.34
257.00	1910.66
258.00	1915.34
259.00	1941.86
260.00	1944.20
261.00	1923.14
262.00	1914.56
263.00	1940.30
264.00	2000.38
265.00	1997.26
266.00	2001.94
267.00	2024.56
268.00	2058.89
269.00	2047.97
270.00	2016.76
271.00	1972.29
272.00	2021.44
273.00	2050.31
274.00	2131.45
275.00	2152.51
276.00	2138.47
277.00	2096.34
278.00	2079.18
279.00	2107.26
280.00	2172.02
281.00	2209.47
282.00	2232.09
283.00	2196.98
284.00	2205.56
285.00	2230.53
286.00	2257.06
287.00	2223.51
288.00	2205.56
289.00	2222.73
290.00	2233.65
291.00	2239.89
292.00	2226.63
293.00	2251.60
294.00	2289.82
295.00	2321.81
296.00	2338.98
297.00	2329.61
298.00	2346.00
299.00	2354.58
300.00	2369.40
301.00	2349.12
302.00	2336.63
303.00	2337.41
304.00	2338.20
305.00	2379.54
306.00	2416.21
307.00	2431.04
308.00	2409.97
309.00	2363.16
310.00	2365.50
311.00	2437.28
312.00	2492.67
313.00	2510.61
314.00	2473.17
315.00	2431.82
316.00	2426.36
317.00	2448.98
318.00	2495.79
319.00	2531.68
320.00	2533.24
321.00	2525.44
322.00	2511.39
323.00	2526.22
324.00	2557.43
325.00	2601.12
326.00	2615.94
327.00	2638.56
328.00	2608.92
329.00	2630.76
330.00	2656.51
331.00	2696.30
332.00	2660.41
333.00	2626.08
334.00	2619.84
335.00	2697.86
336.00	2710.34
337.00	2747.79
338.00	2708.78
339.00	2773.53
340.00	2782.90
341.00	2846.87
342.00	2793.82
343.00	2802.40
344.00	2782.12
345.00	2801.62
346.00	2772.75
347.00	2755.59
348.00	2801.62
349.00	2849.21
350.00	2868.72
351.00	2857.01
352.00	2923.33
353.00	2947.51
354.00	2977.16
355.00	2916.31
356.00	2896.02
357.00	2915.53
358.00	2973.26
359.00	3017.73
360.00	3023.19
361.00	3045.82
362.00	3046.60
363.00	3086.39
364.00	3048.94
365.00	3070.00
366.00	3045.82
367.00	3073.90
368.00	3121.49
369.00	3130.08
370.00	3112.91
371.00	3074.68
372.00	3101.21
373.00	3170.65
374.00	3215.12
375.00	3261.93
376.00	3238.52
377.00	3268.95
378.00	3243.20
379.00	3269.73
380.00	3247.10
381.00	3271.29
382.00	3297.03
383.00	3344.63
384.00	3390.66
385.00	3435.91
386.00	3453.07
387.00	3425.76
388.00	3414.84
389.00	3441.37
390.00	3488.96
391.00	3508.46
392.00	3523.29
393.00	3557.61
394.00	3581.80
395.00	3638.75
396.00	3680.88
397.00	3747.98
398.00	3732.37
399.00	3733.93
400.00	3733.93
401.00	3791.67
402.00	3772.94
403.00	3800.25
404.00	3826.78
405.00	3894.65
406.00	3886.07
407.00	3855.64
408.00	3821.31
409.00	3844.72
410.00	3867.35
411.00	3961.75
412.00	3945.36
413.00	3930.54
414.00	3864.22
415.00	3909.47
416.00	3965.65
417.00	4021.82
418.00	4038.20
419.00	4044.45
420.00	4031.96
421.00	4017.92
422.00	3992.95
423.00	3998.42
424.00	4035.86
425.00	4056.93
426.00	4066.29
427.00	4042.89
428.00	4054.59
429.00	4061.61
430.00	4082.67
431.00	4078.77
432.00	4074.87
433.00	4097.50
434.00	4081.11
435.00	4141.19
436.00	4197.36
437.00	4290.20
438.00	4269.14
439.00	4235.59
440.00	4259.78
441.00	4287.08
442.00	4312.05
443.00	4300.34
444.00	4306.59
445.00	4323.75
446.00	4338.57
447.00	4369.78
448.00	4342.47
449.00	4334.67
450.00	4295.66
451.00	4418.15
452.00	4486.81
453.00	4500.07
454.00	4429.85
455.00	4411.13
456.00	4436.10
457.00	4535.18
458.00	4562.48
459.00	4622.56
460.00	4601.49
461.00	4596.03
462.00	4617.88
463.00	4642.06
464.00	4654.55
465.00	4664.69
466.00	4683.41
467.00	4699.02
468.00	4710.72
469.00	4688.09
470.00	4748.17
471.00	4799.66
472.00	4841.01
473.00	4876.90
474.00	4892.50
475.00	4906.54
476.00	4905.76
477.00	5000.94
478.00	5064.14
479.00	5125.77
480.00	5024.35
481.00	5023.57
482.00	4969.74
483.00	5020.45
484.00	5093.79
485.00	5160.88
486.00	5213.15
487.00	5183.51
488.00	5235.00
489.00	5270.11
490.00	5295.07
491.00	5319.26
492.00	5352.81
493.00	5345.00
494.00	5357.49
495.00	5349.68
496.00	5343.44
497.00	5350.46
498.00	5321.60
499.00	5387.91
500.00	5343.44
501.00	5387.13
502.00	5407.42
503.00	5490.90
504.00	5562.67
505.00	5599.34
506.00	5625.87
507.00	5637.57
508.00	5604.80
509.00	5566.57
510.00	5579.06
511.00	5675.80
512.00	5722.61
513.00	5764.74
514.00	5767.86
515.00	5818.57
516.00	5834.96
517.00	5805.31
518.00	5806.09
519.00	5785.80
520.00	5852.90
521.00	5879.43
522.00	5868.50
523.00	5866.94
524.00	5864.60
525.00	6004.25
526.00	6069.79
527.00	6125.96
528.00	6055.75
529.00	6030.78
530.00	6044.82
531.00	6125.18
532.00	6096.32
533.00	6125.96
534.00	6147.81
535.00	6283.56
536.00	6249.23
537.00	6140.79
538.00	6058.87
539.00	6083.83
540.00	6176.67
541.00	6253.91
542.00	6332.71
543.00	6358.46
544.00	6395.90
545.00	6412.29
546.00	6413.07
547.00	6418.53
548.00	6473.92
549.00	6526.19
550.00	6560.52
551.00	6523.85
552.00	6580.03
553.00	6633.86
554.00	6657.26
555.00	6670.53
556.00	6655.70
557.00	6736.84
558.00	6817.20
559.00	6852.31
560.00	6848.41
561.00	6889.76
562.00	6983.38
563.00	7104.31
564.00	7091.82
565.00	7151.12
566.00	7175.30
567.00	7301.69
568.00	7259.56
569.00	7258.00
570.00	7236.16
571.00	7325.88
572.00	7325.88
573.00	7309.49
574.00	7307.93
575.00	7382.05
576.00	7476.45
577.00	7564.61
578.00	7616.10
579.00	7599.72
580.00	7639.51
581.00	7688.66
582.00	7781.50
583.00	7821.29
584.00	7853.28
585.00	7913.35
586.00	8024.92
587.00	8052.22
588.00	7999.17
589.00	7946.12
590.00	8049.88
591.00	8219.96
592.00	8361.95
593.00	8425.93
594.00	8555.44
595.00	8609.27
596.00	8686.51
597.00	8733.32
598.00	8852.69
599.00	8932.26
600.00	8982.20
601.00	8931.48
602.00	8990.00
603.00	9007.16
604.00	9135.11
605.00	9195.96
606.00	9312.99
607.00	9302.07
608.00	9273.20
609.00	9286.47
610.00	9396.47
611.00	9463.57
612.00	9521.30
613.00	9642.23
614.00	9795.92
615.00	9904.37
616.00	10001.11
617.00	10040.90
618.00	10085.37
619.00	10024.51
620.00	10167.29
621.00	10294.46
622.00	10360.77
623.00	10492.62
624.00	10556.60
625.00	10677.52
626.00	10682.99
627.00	10729.80
628.00	10817.18
629.00	10968.53
630.00	11158.89
631.00	11364.08
632.00	11356.28
633.00	11350.82
634.00	11305.57
635.00	11411.67
636.00	11496.71
637.00	11709.70
638.00	11785.38
639.00	11881.34
640.00	11857.93
641.00	11855.59
642.00	11900.06
643.00	12033.47
644.00	12262.85
645.00	12346.33
646.00	12382.21
647.00	12384.55
648.00	12365.05
649.00	12451.65
650.00	12580.38
651.00	12902.59
652.00	12954.08
653.00	12977.49
654.00	12914.30
655.00	13114.80
656.00	13264.60
657.00	13461.20
658.00	13535.32
659.00	13672.63
660.00	13710.86
661.00	13795.90
662.00	13838.81
663.00	13910.58
664.00	13993.28
665.00	14024.49
666.00	14161.02
667.00	14190.67
668.00	14348.26
669.00	14359.97
670.00	14484.80
671.00	14512.10
672.00	14574.52
673.00	14598.70
674.00	14775.80
675.00	14942.76
676.00	14987.23
677.00	14992.69
678.00	15076.17
679.00	15135.46
680.00	15297.74
681.00	15420.23
682.00	15729.96
683.00	15857.13
684.00	16033.45
685.00	16051.39
686.00	16170.76
687.00	16257.36
688.00	16370.49
689.00	16411.84
690.00	16480.49
691.00	16637.31
692.00	16723.91
693.00	16759.80
694.00	16751.21
695.00	16810.51
696.00	16840.15
697.00	16893.21
698.00	17006.33
699.00	17085.13
700.00	17175.63
701.00	17276.27
702.00	17436.21
703.00	17634.38
704.00	17658.56
705.00	17697.57
706.00	17730.34
707.00	17865.31
708.00	18094.68
709.00	18276.46
710.00	18380.23
711.00	18366.18
712.00	18409.09
713.00	18474.63
714.00	18572.93
715.00	18586.19
716.00	18732.09
717.00	18841.31
718.00	19047.28
719.00	19076.15
720.00	19059.76
721.00	18948.98
722.00	18974.72
723.00	19176.79
724.00	19442.83
725.00	19470.92
726.00	19483.40
727.00	19562.20
728.00	19630.07
729.00	19680.78
730.00	19562.20
731.00	19699.51
732.00	19728.38
733.00	19850.08
734.00	19824.34
735.00	19923.42
736.00	19892.21
737.00	20024.84
738.00	20128.61
739.00	20292.44
740.00	20387.63
741.00	20475.79
742.00	20586.57
743.00	20748.07
744.00	20814.38
745.00	20833.11
746.00	20676.29
747.00	20710.62
748.00	20814.38
749.00	20957.16
750.00	21029.71
751.00	21041.42
752.00	21241.92
753.00	21255.18
754.00	21392.50
755.00	21387.04
756.00	21619.53
757.00	21662.44
758.00	21685.84
759.00	21664.78
760.00	21752.16
761.00	22057.21
762.00	22136.79
763.00	22319.35
764.00	22190.62
765.00	22172.68
766.00	22136.79
767.00	22253.81
768.00	22287.36
769.00	22460.56
770.00	22677.45
771.00	22902.92
772.00	23108.11
773.00	23129.17
774.00	23236.06
775.00	23132.29
776.00	23152.58
777.00	23213.43
778.00	23303.15
779.00	23413.94
780.00	23442.81
781.00	23602.74
782.00	23683.10
783.00	23919.49
784.00	23878.93
785.00	23942.90
786.00	23965.53
787.00	24073.19
788.00	24128.58
789.00	24090.35
790.00	24077.09
791.00	24155.89
792.00	24230.01
793.00	24441.43
794.00	24509.31
795.00	24616.97
796.00	24626.34
797.00	24584.99
798.00	24697.33
799.00	24805.00
800.00	25123.31
801.00	25189.63
802.00	25273.10
803.00	25174.80
804.00	25282.47
805.00	25409.64
806.00	25432.26
807.00	25390.13
808.00	25432.26
809.00	25567.23
810.00	25780.22
811.00	25919.87
812.00	26068.11
813.00	25965.12
814.00	25993.21
815.00	26131.30
816.00	26426.21
817.00	26580.68
818.00	26428.55
819.00	26423.87
820.00	26202.30
821.00	26331.03
822.00	26348.19
823.00	26580.68
824.00	26641.54
825.00	26734.38
826.00	26722.68
827.00	26911.48
828.00	26977.01
829.00	27123.69
830.00	27158.80
831.00	27164.26
832.00	27346.82
833.00	27461.51
834.00	27680.74
835.00	27724.43
836.00	27742.37
837.00	27825.07
838.00	27938.97
839.00	28047.42
840.00	28084.87
841.00	28079.41
842.00	28217.50
843.00	28184.73
844.00	28291.62
845.00	28345.45
846.00	28553.76
847.00	28674.68
848.00	28773.77
849.00	28914.98
850.00	28879.09
851.00	28779.23
852.00	28574.82
853.00	28477.30
854.00	28502.26
855.00	28664.54
856.00	28860.37
857.00	29061.65
858.00	29145.91
859.00	29031.22
860.00	28992.22
861.00	29021.86
862.00	29353.44
863.00	29524.30
864.00	29733.39
865.00	29797.36
866.00	29929.21
867.00	30000.21
868.00	30044.68
869.00	30230.36
870.00	30252.98
871.00	30419.94
872.00	30365.33
873.00	30434.77
874.00	30553.35
875.00	30580.66
876.00	30636.83
877.00	30526.05
878.00	30552.57
879.00	30508.88
880.00	30464.41
881.00	30451.15
882.00	30513.56
883.00	30717.19
884.00	30817.05
885.00	30707.83
886.00	30629.03
887.00	30628.25
888.00	30889.61
889.00	31055.01
890.00	31221.19
891.00	31246.15
892.00	31281.26
893.00	31221.19
894.00	31198.56
895.00	31142.39
896.00	31315.59
897.00	31381.90
898.00	31477.86
899.00	31533.26
900.00	31880.44
901.00	32102.01
902.00	32228.40
903.00	32189.39
904.00	32228.40
905.00	32412.52
906.00	32429.68
907.00	32222.16
908.00	32020.09
909.00	32361.03
910.00	32641.89
911.00	32740.19
912.00	32342.30
913.00	32260.38
914.00	32234.64
915.00	32470.25
916.00	32529.55
917.00	32638.77
918.00	32785.44
919.00	32787.00
920.00	32725.37
921.00	32619.27
922.00	32675.44
923.00	32836.16
924.00	32986.73
925.00	33113.12
926.00	33144.33
927.00	33143.55
928.00	33307.38
929.00	33511.79
930.00	33621.80
931.00	33667.83
932.00	33887.84
933.00	33781.73
934.00	33709.18
935.00	33440.01
936.00	33519.59
937.00	33744.28
938.00	33687.33
939.00	33717.76
940.00	33758.33
941.00	33905.00
942.00	33929.97
943.00	33925.28
944.00	33974.44
945.00	34022.81
946.00	33873.79
947.00	33991.60
948.00	34143.73
949.00	34343.46
950.00	34544.75
951.00	34618.86
952.00	34536.16
953.00	34361.40
954.00	34477.65
955.00	34596.24
956.00	34721.07
957.00	34824.05
958.00	35177.47
959.00	35484.86
960.00	35562.88
961.00	35279.67
962.00	35086.97
963.00	35047.96
964.00	35499.69
965.00	35594.87
966.00	35785.23
967.00	35710.33
968.00	35945.95
969.00	35812.54
970.00	35893.68
971.00	35897.58
972.00	36119.93
973.00	36080.92
974.00	35982.62
975.00	36072.34
976.00	36225.25
977.00	36283.76
978.00	36110.57
979.00	36013.82
980.00	35860.13
981.00	36149.57
982.00	36175.32
983.00	36404.69
984.00	36335.26
985.00	36464.77
986.00	36676.19
987.00	36666.05
988.00	36719.88
989.00	36432.00
990.00	36503.78
991.00	36467.11
992.00	36797.12
993.00	36684.00
994.00	36754.21
995.00	36846.27
996.00	37036.64
997.00	37306.58
998.00	37359.63
999.00	37517.23
1000.00	37496.94
1001.00	37541.41
1002.00	37588.22
1003.00	37515.67
1004.00	37671.70
1005.00	37720.85
1006.00	38012.64
1007.00	37954.13
1008.00	38071.15
1009.00	37873.77
1010.00	37971.29
1011.00	37880.01
1012.00	37942.42
1013.00	37923.70
1014.00	37925.26
1015.00	38002.50
1016.00	38054.77
1017.00	38200.66
1018.00	38386.35
1019.00	38447.20
1020.00	38506.49
1021.00	38464.36
1022.00	38624.30
1023.00	38840.41
1024.00	38916.87
1025.00	38984.74
1026.00	39076.80
1027.00	39184.47
1028.00	39263.27
1029.00	39027.65
1030.00	39038.58
1031.00	39132.98
1032.00	39345.97
1033.00	39441.15
1034.00	39236.74
1035.00	39316.32
1036.00	39286.67
1037.00	39446.61
1038.00	39442.71
1039.00	39390.44
1040.00	39423.20
1041.00	39559.73
1042.00	39811.73
1043.00	39832.02
1044.00	39760.24
1045.00	39803.15
1046.00	39721.23
1047.00	39693.15
1048.00	39761.02
1049.00	40092.60
1050.00	40356.30
1051.00	40474.88
1052.00	40543.54
1053.00	40608.29
1054.00	40628.58
1055.00	40611.42
1056.00	40630.92
1057.00	40667.59
1058.00	40836.89
1059.00	40871.21
1060.00	40946.89
1061.00	40789.30
1062.00	40793.98
1063.00	40719.08
1064.00	40838.45
1065.00	40975.76
1066.00	41273.01
1067.00	41225.42
1068.00	41123.21
1069.00	40873.56
1070.00	40900.08
1071.00	40914.12
1072.00	41114.63
1073.00	41184.07
1074.00	41409.54
1075.00	41274.57
1076.00	41471.17
1077.00	41285.49
1078.00	41459.47
1079.00	41567.91
1080.00	41688.84
1081.00	41630.33
1082.00	41529.69
1083.00	41535.93
1084.00	41575.72
1085.00	41648.27
1086.00	41756.72
1087.00	42004.03
1088.00	42025.10
1089.00	42291.14
1090.00	42292.70
1091.00	42369.16
1092.00	42141.35
1093.00	41983.75
1094.00	42059.43
1095.00	42110.14
1096.00	42142.91
1097.00	42007.15
1098.00	42081.27
1099.00	42336.39
1100.00	42561.86
1101.00	42732.72
1102.00	42747.54
1103.00	42925.42
1104.00	42992.52
1105.00	42996.42
1106.00	43029.19
1107.00	42955.07
1108.00	43067.42
1109.00	42941.03
1110.00	43066.64
1111.00	43014.37
1112.00	43132.17
1113.00	42981.60
1114.00	43095.50
1115.00	42970.68
1116.00	42853.65
1117.00	42710.10
1118.00	42754.57
1119.00	42900.46
1120.00	42935.57
1121.00	42890.32
1122.00	42970.68
1123.00	43083.80
1124.00	43084.58
1125.00	43118.13
1126.00	43007.34
1127.00	42958.19
1128.00	42838.05
1129.00	42896.56
1130.00	43168.06
1131.00	43477.01
1132.00	43744.61
1133.00	43779.72
1134.00	43867.10
1135.00	43710.28
1136.00	43571.41
1137.00	43489.49
1138.00	43438.00
1139.00	43510.56
1140.00	43380.27
1141.00	43569.85
1142.00	43844.48
1143.00	43966.96
1144.00	44189.31
1145.00	44098.81
1146.00	44097.25
1147.00	43680.64
1148.00	43483.25
1149.00	43454.39
1150.00	43498.08
1151.00	43612.76
1152.00	43866.32
1153.00	44033.28
1154.00	44053.56
1155.00	43816.39
1156.00	43784.40
1157.00	43734.47
1158.00	43590.14
1159.00	43623.68
1160.00	43656.45
1161.00	44059.02
1162.00	44232.22
1163.00	44390.60
1164.00	44307.12
1165.00	44217.40
1166.00	44091.79
1167.00	44239.25
1168.00	44284.50
1169.00	44540.39
1170.00	44282.94
1171.00	44357.83
1172.00	44140.16
1173.00	44122.22
1174.00	43983.35
1175.00	43942.78
1176.00	43856.18
1177.00	43846.04
1178.00	43798.44
1179.00	43971.64
1180.00	44116.76
1181.00	44179.95
1182.00	44391.38
1183.00	44276.69
1184.00	44376.56
1185.00	44264.21
1186.00	44289.18
1187.00	44254.07
1188.00	44346.91
1189.00	44434.29
1190.00	44634.80
1191.00	44672.24
1192.00	44583.30
1193.00	44478.76
1194.00	44467.84
1195.00	44717.50
1196.00	44850.13
1197.00	44729.20
1198.00	44683.17
1199.00	44573.94
1200.00	44688.63
1201.00	44751.82
1202.00	44837.64
1203.00	45011.62
1204.00	45052.97
1205.00	45074.82
1206.00	44996.02
1207.00	44934.38
1208.00	44952.33
1209.00	44904.74
1210.00	44964.03
1211.00	44914.88
1212.00	44916.44
1213.00	44852.47
1214.00	44901.62
1215.00	45043.61
1216.00	44869.63
1217.00	44748.70
1218.00	44427.27
1219.00	44529.47
1220.00	44476.42
1221.00	44268.89
1222.00	44152.65
1223.00	44162.79
1224.00	44355.49
1225.00	44578.62
1226.00	44818.14
1227.00	45166.10
1228.00	45070.92
1229.00	44935.95
1230.00	44818.92
1231.00	44818.92
1232.00	44761.19
1233.00	44625.43
1234.00	44590.33
1235.00	44708.91
1236.00	44876.65
1237.00	45012.40
1238.00	45233.19
1239.00	45356.46
1240.00	45514.06
1241.00	45648.25
1242.00	46021.17
1243.00	46138.20
1244.00	46057.84
1245.00	45833.93
1246.00	45888.54
1247.00	45933.01
1248.00	45890.88
1249.00	45768.40
1250.00	45553.07
1251.00	45545.26
1252.00	45558.53
1253.00	45739.53
1254.00	45866.70
1255.00	45802.72
1256.00	45891.66
1257.00	45874.50
1258.00	46057.84
1259.00	45794.92
1260.00	45752.01
1261.00	45772.30
1262.00	46130.40
1263.00	46418.28
1264.00	46512.69
1265.00	46603.97
1266.00	46454.95
1267.00	46488.50
1268.00	46378.50
1269.00	46280.97
1270.00	46033.66
1271.00	46091.39
1272.00	46241.18
1273.00	46450.27
1274.00	46584.46
1275.00	46620.35
1276.00	46692.91
1277.00	46586.02
1278.00	46570.42
1279.00	46543.89
1280.00	46583.68
1281.00	46694.47
1282.00	46923.84
1283.00	47040.09
1284.00	46834.12
1285.00	46737.38
1286.00	46585.24
1287.00	46725.67
1288.00	46688.23
1289.00	46974.55
1290.00	47033.85
1291.00	46967.53
1292.00	46933.20
1293.00	47040.87
1294.00	47209.39
1295.00	46873.13
1296.00	46840.36
1297.00	46646.10
1298.00	46860.65
1299.00	46918.38
1300.00	47249.17
1301.00	47542.52
1302.00	47494.93
1303.00	47285.84
1304.00	47198.46
1305.00	47255.42
1306.00	47419.25
1307.00	47107.96
1308.00	47095.48
1309.00	46838.02
1310.00	47114.98
1311.00	47181.30
1312.00	47621.32
1313.00	47868.64
1314.00	47930.27
1315.00	47973.18
1316.00	47939.63
1317.00	47998.93
1318.00	47818.70
1319.00	47647.85
1320.00	47572.17
1321.00	47474.65
1322.00	47736.79
1323.00	47928.71
1324.00	48268.09
1325.00	48211.92
1326.00	48353.13
1327.00	48476.40
1328.00	48520.09
1329.00	48424.12
1330.00	48191.63
1331.00	48075.38
1332.00	47775.80
1333.00	47706.36
1334.00	47665.79
1335.00	47854.59
1336.00	47897.50
1337.00	47860.83
1338.00	47627.56
1339.00	47598.69
1340.00	47555.00
1341.00	47838.21
1342.00	47789.84
1343.00	47930.27
1344.00	47776.58
1345.00	47805.44
1346.00	47771.11
1347.00	47817.92
1348.00	47677.49
1349.00	47794.52
1350.00	47718.84
1351.00	47778.14
1352.00	47519.12
1353.00	47711.04
1354.00	47778.92
1355.00	47884.24
1356.00	47883.46
1357.00	48187.73
1358.00	48300.08
1359.00	48311.78
1360.00	48381.21
1361.00	48623.07
1362.00	48719.81
1363.00	48522.43
1364.00	48133.90
1365.00	48067.58
1366.00	47941.97
1367.00	48023.89
1368.00	47946.65
1369.00	48182.27
1370.00	48152.62
1371.00	48228.30
1372.00	48128.44
1373.00	48416.32
1374.00	48616.05
1375.00	48548.17
1376.00	48626.19
1377.00	48349.23
1378.00	48432.71
1379.00	48114.39
1380.00	48294.61
1381.00	48275.89
1382.00	48271.21
1383.00	48139.36
1384.00	48029.35
1385.00	48097.23
1386.00	48023.11
1387.00	48048.08
1388.00	47909.21
1389.00	47803.10
1390.00	47893.60
1391.00	48065.24
1392.00	48381.21
1393.00	48346.89
1394.00	48421.00
1395.00	48263.41
1396.00	48328.16
1397.00	48204.89
1398.00	48250.14
1399.00	48232.20
1400.00	48248.58
1401.00	48296.95
1402.00	48195.53
1403.00	48059.00
1404.00	47861.61
1405.00	47761.75
1406.00	47744.59
1407.00	47824.17
1408.00	47938.07
1409.00	48084.75
1410.00	48119.07
1411.00	48322.70
1412.00	48366.39
1413.00	48495.90
1414.00	48487.32
1415.00	48603.56
1416.00	48650.38
1417.00	48528.67
1418.00	48232.98
1419.00	48138.58
1420.00	48271.99
1421.00	48453.77
1422.00	48584.06
1423.00	48507.60
1424.00	48537.25
1425.00	48244.68
1426.00	48290.71
1427.00	48310.22
1428.00	48395.26
1429.00	48162.76
1430.00	47989.56
1431.00	48170.57
1432.00	48270.43
1433.00	48282.91
1434.00	47938.07
1435.00	47942.75
1436.00	47982.54
1437.00	48069.92
1438.00	47882.68
1439.00	47760.97
1440.00	47770.33
1441.00	47906.87
1442.00	47998.15
1443.00	48001.27
1444.00	47945.09
1445.00	47997.37
1446.00	48059.78
1447.00	48200.99
1448.00	48174.47
1449.00	48122.19
1450.00	48169.01
1451.00	48236.10
1452.00	48228.30
1453.00	48037.94
1454.00	47922.47
1455.00	47860.83
1456.00	47826.51
1457.00	47842.11
1458.00	47993.46
1459.00	47916.23
1460.00	47842.89
1461.00	47726.64
1462.00	47644.73
1463.00	47555.78
1464.00	47367.76
1465.00	47627.56
1466.00	47677.49
1467.00	47856.93
1468.00	47870.98
1469.00	48103.47
1470.00	48264.97
1471.00	48279.01
1472.00	48117.51
1473.00	48001.27
1474.00	47906.08
1475.00	47783.60
1476.00	47734.45
1477.00	47845.23
1478.00	47977.86
1479.00	47953.68
1480.00	47803.10
1481.00	47646.29
1482.00	47574.51
1483.00	47396.63
1484.00	47392.73
1485.00	47245.27
1486.00	47265.56
1487.00	47147.75
1488.00	47132.93
1489.00	47209.39
1490.00	47401.31
1491.00	47643.16
1492.00	47668.13
1493.00	47617.42
1494.00	47620.54
1495.00	47797.64
1496.00	48080.84
1497.00	47988.78
1498.00	47888.14
1499.00	47555.78
1500.00	47565.93
1501.00	47388.83
1502.00	47480.89
1503.00	47393.51
1504.00	47404.43
1505.00	47329.53
1506.00	47223.43
1507.00	47028.38
1508.00	46987.03
1509.00	47083.78
1510.00	47441.88
1511.00	47467.62
1512.00	47466.84
1513.00	47145.41
1514.00	46978.45
1515.00	46870.79
1516.00	46844.26
1517.00	46909.02
1518.00	46917.60
1519.00	46948.81
1520.00	46747.52
1521.00	46617.23
1522.00	46459.63
1523.00	46655.46
1524.00	46726.45
1525.00	46940.22
1526.00	46929.30
1527.00	46809.15
1528.00	46804.47
1529.00	46600.07
1530.00	46675.74
1531.00	46709.29
1532.00	46997.18
1533.00	47113.42
1534.00	47050.23
1535.00	47052.57
1536.00	47168.82
1537.00	47152.43
1538.00	47117.32
1539.00	46933.20
1540.00	47125.91
1541.00	47230.45
1542.00	47277.26
1543.00	47207.05
1544.00	47304.57
1545.00	47455.14
1546.00	47409.89
1547.00	47075.19
1548.00	47027.60
1549.00	47039.31
1550.00	47080.66
1551.00	47008.88
1552.00	46930.08
1553.00	47049.45
1554.00	47148.53
1555.00	47184.42
1556.00	46952.71
1557.00	46755.32
1558.00	46597.73
1559.00	46709.29
1560.00	46486.16
1561.00	46401.12
1562.00	46334.03
1563.00	46383.96
1564.00	46451.05
1565.00	46463.53
1566.00	46365.23
1567.00	46248.21
1568.00	46009.47
1569.00	45986.85
1570.00	46069.54
1571.00	46077.35
1572.00	46123.38
1573.00	45945.50
1574.00	45918.97
1575.00	45960.32
1576.00	45969.68
1577.00	46089.05
1578.00	46102.31
1579.00	46248.21
1580.00	46346.51
1581.00	46362.11
1582.00	46292.68
1583.00	46373.03
1584.00	46317.64
1585.00	46379.28
1586.00	46121.04
1587.00	46017.27
1588.00	46056.28
1589.00	46220.90
1590.00	46421.41
1591.00	46319.98
1592.00	46161.61
1593.00	46002.45
1594.00	45979.82
1595.00	46028.98
1596.00	46181.89
1597.00	46136.64
1598.00	45968.12
1599.00	45739.53
1600.00	45661.51
1601.00	45634.99
1602.00	45611.58
1603.00	45681.80
1604.00	45873.72
1605.00	45898.69
1606.00	45864.36
1607.00	45689.60
1608.00	45730.95
1609.00	45815.99
1610.00	45838.61
1611.00	45941.60
1612.00	45817.55
1613.00	45819.11
1614.00	45633.42
1615.00	45563.99
1616.00	45345.54
1617.00	45323.69
1618.00	45474.27
1619.00	45563.99
1620.00	45753.57
1621.00	45901.81
1622.00	46111.67
1623.00	46076.57
1624.00	45855.00
1625.00	45716.90
1626.00	45567.89
1627.00	45486.75
1628.00	45517.96
1629.00	45468.03
1630.00	45461.79
1631.00	45387.67
1632.00	45623.28
1633.00	45801.94
1634.00	45861.24
1635.00	45766.84
1636.00	45666.19
1637.00	45762.93
1638.00	45750.45
1639.00	45808.97
1640.00	45759.81
1641.00	45550.73
1642.00	45450.86
1643.00	45269.08
1644.00	45223.83
1645.00	45051.41
1646.00	44863.39
1647.00	44768.21
1648.00	44735.44
1649.00	44854.81
1650.00	44876.65
1651.00	44880.55
1652.00	44897.72
1653.00	45103.68
1654.00	45290.93
1655.00	45228.51
1656.00	45157.52
1657.00	45018.64
1658.00	45023.33
1659.00	44884.45
1660.00	44975.73
1661.00	45071.70
1662.00	45148.15
1663.00	45120.07
1664.00	45013.96
1665.00	45090.42
1666.00	45056.09
1667.00	45107.58
1668.00	44850.13
1669.00	44765.09
1670.00	44743.24
1671.00	44927.36
1672.00	44878.99
1673.00	44790.83
1674.00	44754.94
1675.00	44786.93
1676.00	44949.21
1677.00	44999.14
1678.00	45017.08
1679.00	44983.54
1680.00	44941.41
1681.00	44947.65
1682.00	44834.52
1683.00	44749.48
1684.00	44691.75
1685.00	44615.29
1686.00	44431.17
1687.00	44134.70
1688.00	44140.94
1689.00	44393.72
1690.00	44507.63
1691.00	44431.95
1692.00	44098.81
1693.00	44012.99
1694.00	43738.37
1695.00	43632.27
1696.00	43381.83
1697.00	43396.65
1698.00	43352.96
1699.00	43558.93
1700.00	43568.29
1701.00	43626.03
1702.00	43673.62
1703.00	43786.74
1704.00	43874.12
1705.00	43795.32
1706.00	43796.10
1707.00	43775.04
1708.00	43740.71
1709.00	43571.41
1710.00	43467.65
1711.00	43409.92
1712.00	43356.08
1713.00	43377.15
1714.00	43177.42
1715.00	43245.30
1716.00	43080.68
1717.00	43076.00
1718.00	42948.83
1719.00	42981.60
1720.00	43118.13
1721.00	43100.97
1722.00	43025.29
1723.00	42896.56
1724.00	42603.99
1725.00	42337.95
1726.00	42139.00
1727.00	42397.24
1728.00	42339.51
1729.00	42316.89
1730.00	42129.64
1731.00	42219.36
1732.00	42172.55
1733.00	42088.29
1734.00	41995.45
1735.00	41899.49
1736.00	41839.42
1737.00	41862.82
1738.00	41974.39
1739.00	42141.35
1740.00	42263.05
1741.00	42288.02
1742.00	41990.77
1743.00	41523.44
1744.00	40946.89
1745.00	40673.05
1746.00	40733.12
1747.00	40743.27
1748.00	40648.86
1749.00	40311.83
1750.00	40132.39
1751.00	39908.47
1752.00	39658.82
1753.00	39424.76
1754.00	39458.31
1755.00	39592.50
1756.00	39789.89
1757.00	39707.19
1758.00	39544.91
1759.00	39388.10
1760.00	39489.52
1761.00	39671.30
1762.00	39731.37
1763.00	39477.04
1764.00	39392.78
1765.00	39291.35
1766.00	39376.39
1767.00	39250.00
1768.00	39273.41
1769.00	39246.10
1770.00	39312.42
1771.00	39249.22
1772.00	39140.78
1773.00	39077.58
1774.00	39033.11
1775.00	38966.80
1776.00	38786.58
1777.00	38559.55
1778.00	38296.63
1779.00	38214.71
1780.00	38077.40
1781.00	37961.93
1782.00	37589.78
1783.00	37371.33
1784.00	37273.81
1785.00	37443.89
1786.00	37430.63
1787.00	37465.74
1788.00	37365.09
1789.00	37417.36
1790.00	37309.70
1791.00	37087.35
1792.00	36752.65
1793.00	36400.79
1794.00	36191.70
1795.00	35922.54
1796.00	35772.75
1797.00	35624.51
1798.00	35800.05
1799.00	35924.88
1800.00	36005.24
1801.00	35768.85
1802.00	35580.04
1803.00	35324.93
1804.00	35400.60
1805.00	35233.64
1806.00	35155.63
1807.00	34912.21
1808.00	34652.41
1809.00	34482.33
1810.00	34256.86
1811.00	34263.88
1812.00	34224.87
1813.00	34199.91
1814.00	34119.55
1815.00	33853.51
1816.00	33666.27
1817.00	33422.85
1818.00	33343.27
1819.00	33151.35
1820.00	33040.56
1821.00	32750.34
1822.00	32698.06
1823.00	32464.79
1824.00	32426.56
1825.00	32084.06
1826.00	32008.39
1827.00	31781.35
1828.00	31683.05
1829.00	31632.34
1830.00	31406.09
1831.00	31496.59
1832.00	31369.42
1833.00	31309.35
1834.00	30972.31
1835.00	30644.63
1836.00	30288.09
1837.00	30166.38
1838.00	29996.31
1839.00	29916.73
1840.00	29631.18
1841.00	29464.22
1842.00	29345.64
1843.00	29165.42
1844.00	28931.36
1845.00	28824.48
1846.00	28786.25
1847.00	28689.51
1848.00	28489.78
1849.00	28247.15
1850.00	28195.65
1851.00	27995.15
1852.00	27836.77
1853.00	27682.30
1854.00	27508.32
1855.00	27378.03
1856.00	26942.69
1857.00	26844.38
1858.00	26589.27
1859.00	26563.52
1860.00	26288.90
1861.00	26148.46
1862.00	26061.87
1863.00	26114.92
1864.00	26147.68
1865.00	26042.36
1866.00	25759.16
1867.00	25563.33
1868.00	25323.04
1869.00	25190.41
1870.00	25010.18
1871.00	24886.92
1872.00	24755.85
1873.00	24524.13
1874.00	24120.78
1875.00	23813.39
1876.00	23630.05
1877.00	23662.04
1878.00	23647.99
1879.00	23554.37
1880.00	23441.25
1881.00	23300.03
1882.00	23132.29
1883.00	22900.58
1884.00	22805.40
1885.00	22690.71
1886.00	22630.64
1887.00	22506.59
1888.00	22292.82
1889.00	22171.89
1890.00	21955.01
1891.00	21808.33
1892.00	21562.58
1893.00	21472.85
1894.00	21333.98
1895.00	21286.39
1896.00	21065.60
1897.00	20938.43
1898.00	20801.12
1899.00	20751.97
1900.00	20569.41
1901.00	20429.76
1902.00	20245.63
1903.00	20249.53
1904.00	20161.37
1905.00	20097.40
1906.00	19908.60
1907.00	19669.08
1908.00	19520.07
1909.00	19470.92
1910.00	19427.23
1911.00	19283.67
1912.00	19043.38
1913.00	18988.77
1914.00	18786.70
1915.00	18703.22
1916.00	18399.73
1917.00	18423.14
1918.00	18214.05
1919.00	18150.85
1920.00	17856.73
1921.00	17774.03
1922.00	17791.97
1923.00	17834.10
1924.00	17756.08
1925.00	17588.35
1926.00	17351.17
1927.00	17184.99
1928.00	17025.84
1929.00	17002.43
1930.00	16950.16
1931.00	16933.00
1932.00	16844.06
1933.00	16822.21
1934.00	16663.83
1935.00	16627.17
1936.00	16482.83
1937.00	16414.18
1938.00	16276.09
1939.00	16270.62
1940.00	16142.67
1941.00	16038.13
1942.00	15772.09
1943.00	15658.96
1944.00	15453.78
1945.00	15381.22
1946.00	15321.15
1947.00	15255.61
1948.00	15203.34
1949.00	15132.34
1950.00	14950.56
1951.00	14760.98
1952.00	14652.53
1953.00	14629.13
1954.00	14609.62
1955.00	14516.00
1956.00	14531.61
1957.00	14440.33
1958.00	14379.47
1959.00	14189.89
1960.00	14023.71
1961.00	13944.91
1962.00	13870.01
1963.00	13941.01
1964.00	13737.38
1965.00	13737.38
1966.00	13582.13
1967.00	13502.55
1968.00	13425.31
1969.00	13349.64
1970.00	13318.43
1971.00	13225.59
1972.00	13128.06
1973.00	13031.32
1974.00	12897.13
1975.00	12876.85
1976.00	12819.11
1977.00	12733.29
1978.00	12638.89
1979.00	12585.84
1980.00	12556.19
1981.00	12474.28
1982.00	12393.14
1983.00	12368.95
1984.00	12329.94
1985.00	12204.33
1986.00	11978.08
1987.00	11934.39
1988.00	11874.32
1989.00	11891.48
1990.00	11815.02
1991.00	11797.08
1992.00	11651.97
1993.00	11519.34
1994.00	11442.88
1995.00	11474.09
1996.00	11378.90
1997.00	11278.26
1998.00	11141.73
1999.00	11158.89
2000.00	11179.96
2001.00	11125.35
2002.00	11023.14
2003.00	10843.70
2004.00	10860.87
2005.00	10860.09
2006.00	10860.09
2007.00	10781.29
2008.00	10663.48
2009.00	10633.05
2010.00	10544.89
2011.00	10526.95
2012.00	10480.14
2013.00	10501.20
2014.00	10379.50
2015.00	10339.71
2016.00	10239.84
2017.00	10257.01
2018.00	10243.74
2019.00	10226.58
2020.00	10161.83
2021.00	10089.27
2022.00	9995.65
2023.00	9915.29
2024.00	9817.77
2025.00	9832.59
2026.00	9795.14
2027.00	9755.35
2028.00	9700.74
2029.00	9711.66
2030.00	9735.07
2031.00	9631.30
2032.00	9548.61
2033.00	9456.54
2034.00	9379.31
2035.00	9279.44
2036.00	9103.90
2037.00	9040.71
2038.00	9021.98
2039.00	9079.72
2040.00	9064.11
2041.00	9050.85
2042.00	8966.59
2043.00	8959.57
2044.00	8872.19
2045.00	8787.15
2046.00	8686.51
2047.00	8650.62
>>>>>End Processed Spectral Data<<<<<
