SpectraSuite Data File
++++++++++++++++++++++++++++++++++++
Date: Thu Nov 16 14:11:53 EST 2017
User: cheriyan
Dark Spectrum Present: No
Reference Spectrum Present: No
Number of Sampled Component Spectra: 1
Spectrometers: USB2+H05261
Integration Time (usec): 100000 (USB2+H05261)
Spectra Averaged: 1 (USB2+H05261)
Boxcar Smoothing: 1 (USB2+H05261)
Correct for Electrical Dark: No (USB2+H05261)
Strobe/Lamp Enabled: No (USB2+H05261)
Correct for Detector Non-linearity: No (USB2+H05261)
Correct for Stray Light: No (USB2+H05261)
Number of Pixels in Processed Spectrum: 2048
>>>>>Begin Processed Spectral Data<<<<<
0.00	341.72
1.00	341.72
2.00	333.14
3.00	289.45
4.00	266.82
5.00	237.95
6.00	254.34
7.00	259.02
8.00	252.00
9.00	254.34
10.00	208.31
11.00	202.85
12.00	180.22
13.00	242.64
14.00	239.51
15.00	246.54
16.00	204.41
17.00	238.73
18.00	269.94
19.00	264.48
20.00	252.00
21.00	234.83
22.00	251.22
23.00	300.37
24.00	423.64
25.00	562.51
26.00	662.37
27.00	680.32
28.00	665.49
29.00	647.55
30.00	630.38
31.00	642.09
32.00	678.76
33.00	703.72
34.00	724.01
35.00	737.27
36.00	753.65
37.00	765.36
38.00	731.03
39.00	741.95
40.00	755.21
41.00	787.98
42.00	772.38
43.00	749.75
44.00	733.37
45.00	740.39
46.00	766.14
47.00	755.21
48.00	754.43
49.00	761.45
50.00	808.26
51.00	809.83
52.00	805.14
53.00	771.60
54.00	796.56
55.00	773.16
56.00	784.86
57.00	773.16
58.00	771.60
59.00	772.38
60.00	772.38
61.00	802.02
62.00	816.07
63.00	810.61
64.00	818.41
65.00	825.43
66.00	827.77
67.00	820.75
68.00	813.73
69.00	821.53
70.00	818.41
71.00	826.99
72.00	844.15
73.00	848.83
74.00	859.76
75.00	834.01
76.00	815.29
77.00	819.19
78.00	834.79
79.00	833.23
80.00	798.90
81.00	823.87
82.00	851.95
83.00	876.14
84.00	847.27
85.00	848.05
86.00	862.88
87.00	885.50
88.00	933.87
89.00	961.96
90.00	953.38
91.00	924.51
92.00	886.28
93.00	868.34
94.00	887.84
95.00	883.16
96.00	922.95
97.00	917.49
98.00	950.26
99.00	950.26
100.00	965.86
101.00	965.86
102.00	957.28
103.00	942.46
104.00	949.48
105.00	968.98
106.00	955.72
107.00	922.95
108.00	932.31
109.00	945.58
110.00	983.02
111.00	983.02
112.00	999.41
113.00	995.51
114.00	969.76
115.00	977.56
116.00	997.07
117.00	1018.91
118.00	1007.99
119.00	1015.01
120.00	1057.14
121.00	1063.38
122.00	1056.36
123.00	1035.30
124.00	1057.92
125.00	1047.00
126.00	1032.18
127.00	1036.86
128.00	1057.14
129.00	1076.65
130.00	1036.86
131.00	1024.37
132.00	1031.40
133.00	1079.77
134.00	1083.67
135.00	1078.21
136.00	1067.28
137.00	1123.46
138.00	1142.18
139.00	1145.30
140.00	1121.90
141.00	1111.75
142.00	1113.31
143.00	1110.19
144.00	1112.53
145.00	1128.92
146.00	1093.03
147.00	1121.12
148.00	1155.44
149.00	1200.69
150.00	1192.11
151.00	1160.13
152.00	1162.47
153.00	1174.95
154.00	1231.90
155.00	1242.82
156.00	1225.66
157.00	1167.93
158.00	1171.83
159.00	1212.40
160.00	1223.32
161.00	1252.97
162.00	1281.83
163.00	1299.00
164.00	1295.10
165.00	1263.89
166.00	1275.59
167.00	1252.97
168.00	1252.97
169.00	1268.57
170.00	1288.86
171.00	1308.36
172.00	1307.58
173.00	1352.05
174.00	1355.17
175.00	1332.54
176.00	1335.67
177.00	1362.19
178.00	1420.71
179.00	1423.05
180.00	1410.56
181.00	1384.82
182.00	1341.91
183.00	1365.31
184.00	1392.62
185.00	1430.85
186.00	1406.66
187.00	1419.92
188.00	1426.17
189.00	1462.83
190.00	1486.24
191.00	1478.44
192.00	1470.64
193.00	1453.47
194.00	1473.76
195.00	1461.27
196.00	1478.44
197.00	1476.10
198.00	1527.59
199.00	1527.59
200.00	1540.07
201.00	1531.49
202.00	1547.09
203.00	1577.52
204.00	1589.22
205.00	1566.60
206.00	1551.00
207.00	1551.00
208.00	1579.86
209.00	1631.35
210.00	1645.40
211.00	1657.10
212.00	1618.87
213.00	1638.38
214.00	1663.34
215.00	1694.55
216.00	1696.11
217.00	1683.63
218.00	1689.87
219.00	1684.41
220.00	1677.38
221.00	1688.31
222.00	1699.23
223.00	1729.66
224.00	1751.50
225.00	1776.47
226.00	1776.47
227.00	1737.46
228.00	1721.85
229.00	1720.29
230.00	1771.01
231.00	1802.21
232.00	1812.35
233.00	1770.23
234.00	1770.23
235.00	1768.66
236.00	1825.62
237.00	1860.73
238.00	1947.33
239.00	1946.55
240.00	1948.89
241.00	1928.60
242.00	1949.67
243.00	1908.32
244.00	1898.95
245.00	1895.05
246.00	1951.23
247.00	1973.07
248.00	1964.49
249.00	1962.93
250.00	1973.07
251.00	2019.10
252.00	2041.73
253.00	2047.97
254.00	2084.64
255.00	2114.28
256.00	2110.38
257.00	2115.06
258.00	2120.53
259.00	2136.91
260.00	2138.47
261.00	2136.13
262.00	2149.39
263.00	2195.42
264.00	2211.03
265.00	2183.72
266.00	2164.22
267.00	2214.93
268.00	2299.19
269.00	2319.47
270.00	2273.44
271.00	2282.80
272.00	2315.57
273.00	2392.03
274.00	2380.32
275.00	2385.79
276.00	2353.02
277.00	2381.89
278.00	2375.64
279.00	2429.48
280.00	2445.86
281.00	2438.84
282.00	2413.09
283.00	2434.16
284.00	2495.79
285.00	2539.48
286.00	2521.54
287.00	2491.11
288.00	2452.88
289.00	2477.07
290.00	2502.03
291.00	2524.66
292.00	2584.73
293.00	2599.56
294.00	2583.17
295.00	2538.70
296.00	2519.20
297.00	2547.28
298.00	2587.85
299.00	2598.77
300.00	2644.03
301.00	2603.46
302.00	2602.68
303.00	2616.72
304.00	2632.32
305.00	2672.89
306.00	2683.03
307.00	2690.84
308.00	2668.21
309.00	2605.02
310.00	2597.21
311.00	2642.46
312.00	2704.88
313.00	2723.60
314.00	2695.52
315.00	2707.22
316.00	2743.11
317.00	2774.32
318.00	2748.57
319.00	2759.49
320.00	2769.63
321.00	2754.81
322.00	2751.69
323.00	2750.91
324.00	2860.91
325.00	2918.65
326.00	2953.76
327.00	2937.37
328.00	2909.29
329.00	2881.98
330.00	2907.73
331.00	2914.75
332.00	2955.32
333.00	2907.73
334.00	2923.33
335.00	2942.83
336.00	2997.45
337.00	3007.59
338.00	2992.76
339.00	2988.86
340.00	3059.08
341.00	3119.93
342.00	3091.07
343.00	3080.93
344.00	3083.27
345.00	3148.80
346.00	3137.10
347.00	3122.27
348.00	3139.44
349.00	3181.57
350.00	3210.43
351.00	3201.85
352.00	3213.56
353.00	3225.26
354.00	3232.28
355.00	3222.14
356.00	3212.78
357.00	3258.03
358.00	3259.59
359.00	3370.37
360.00	3383.63
361.00	3425.76
362.00	3386.76
363.00	3393.78
364.00	3370.37
365.00	3371.15
366.00	3365.69
367.00	3396.12
368.00	3412.50
369.00	3446.05
370.00	3478.04
371.00	3474.14
372.00	3467.11
373.00	3492.86
374.00	3533.43
375.00	3569.32
376.00	3605.21
377.00	3584.14
378.00	3622.37
379.00	3619.25
380.00	3723.01
381.00	3752.66
382.00	3794.79
383.00	3804.93
384.00	3797.13
385.00	3794.79
386.00	3780.75
387.00	3836.92
388.00	3862.66
389.00	3876.71
390.00	3897.77
391.00	3857.98
392.00	3900.11
393.00	3940.68
394.00	4021.82
395.00	4056.93
396.00	4013.24
397.00	4028.06
398.00	4047.57
399.00	4158.35
400.00	4251.97
401.00	4296.44
402.00	4243.39
403.00	4218.43
404.00	4237.93
405.00	4254.31
406.00	4242.61
407.00	4216.87
408.00	4251.19
409.00	4249.63
410.00	4255.09
411.00	4310.49
412.00	4357.30
413.00	4435.32
414.00	4441.56
415.00	4464.96
416.00	4390.06
417.00	4382.26
418.00	4397.87
419.00	4444.68
420.00	4441.56
421.00	4472.76
422.00	4515.67
423.00	4537.52
424.00	4527.38
425.00	4517.23
426.00	4494.61
427.00	4493.83
428.00	4550.78
429.00	4589.79
430.00	4552.34
431.00	4493.05
432.00	4434.54
433.00	4519.57
434.00	4545.32
435.00	4611.64
436.00	4617.88
437.00	4691.21
438.00	4720.86
439.00	4716.96
440.00	4755.97
441.00	4809.02
442.00	4819.16
443.00	4802.00
444.00	4790.30
445.00	4825.40
446.00	4819.94
447.00	4828.53
448.00	4853.49
449.00	4851.15
450.00	4872.22
451.00	4948.67
452.00	4969.74
453.00	5050.10
454.00	4984.56
455.00	5036.83
456.00	5003.29
457.00	5061.02
458.00	5100.81
459.00	5093.01
460.00	5078.18
461.00	5061.80
462.00	5158.54
463.00	5223.30
464.00	5238.90
465.00	5225.64
466.00	5224.08
467.00	5272.45
468.00	5301.31
469.00	5369.19
470.00	5365.29
471.00	5366.07
472.00	5334.86
473.00	5352.03
474.00	5413.66
475.00	5431.60
476.00	5460.47
477.00	5493.24
478.00	5543.95
479.00	5607.14
480.00	5609.48
481.00	5692.96
482.00	5696.08
483.00	5728.85
484.00	5749.92
485.00	5748.36
486.00	5751.48
487.00	5675.02
488.00	5719.49
489.00	5812.33
490.00	5897.37
491.00	5970.71
492.00	5916.09
493.00	5930.92
494.00	5969.15
495.00	6001.13
496.00	6019.08
497.00	6001.91
498.00	6012.84
499.00	6060.43
500.00	6121.28
501.00	6156.39
502.00	6119.72
503.00	6030.00
504.00	6073.69
505.00	6175.11
506.00	6245.33
507.00	6323.35
508.00	6285.12
509.00	6361.58
510.00	6328.03
511.00	6324.91
512.00	6321.79
513.00	6406.05
514.00	6507.47
515.00	6540.24
516.00	6508.25
517.00	6550.38
518.00	6558.18
519.00	6529.31
520.00	6554.28
521.00	6608.11
522.00	6672.09
523.00	6674.43
524.00	6673.65
525.00	6708.76
526.00	6676.77
527.00	6717.34
528.00	6722.02
529.00	6743.08
530.00	6744.64
531.00	6740.74
532.00	6749.32
533.00	6758.69
534.00	6812.52
535.00	6878.05
536.00	6854.65
537.00	6813.30
538.00	6795.36
539.00	6860.89
540.00	6931.89
541.00	6965.43
542.00	6984.16
543.00	7096.50
544.00	7148.00
545.00	7239.28
546.00	7170.62
547.00	7144.10
548.00	7162.04
549.00	7264.24
550.00	7396.09
551.00	7396.09
552.00	7384.39
553.00	7400.77
554.00	7366.45
555.00	7388.29
556.00	7399.99
557.00	7452.27
558.00	7520.92
559.00	7563.05
560.00	7659.79
561.00	7663.69
562.00	7631.71
563.00	7632.49
564.00	7703.48
565.00	7862.64
566.00	8021.80
567.00	8030.38
568.00	7977.33
569.00	7919.59
570.00	8032.72
571.00	8226.20
572.00	8234.78
573.00	8195.78
574.00	8154.43
575.00	8253.51
576.00	8376.78
577.00	8365.07
578.00	8456.36
579.00	8449.33
580.00	8550.76
581.00	8532.81
582.00	8621.75
583.00	8696.65
584.00	8835.52
585.00	8887.01
586.00	9019.64
587.00	8982.98
588.00	8981.42
589.00	8954.89
590.00	9037.59
591.00	9177.24
592.00	9249.80
593.00	9432.36
594.00	9481.51
595.00	9608.68
596.00	9580.59
597.00	9661.73
598.00	9795.92
599.00	9958.98
600.00	10002.67
601.00	9951.96
602.00	9986.29
603.00	10115.02
604.00	10232.82
605.00	10362.33
606.00	10418.50
607.00	10474.68
608.00	10540.99
609.00	10707.95
610.00	10679.08
611.00	10611.99
612.00	10550.35
613.00	10717.31
614.00	10799.23
615.00	10907.68
616.00	11030.16
617.00	11215.07
618.00	11323.51
619.00	11316.49
620.00	11399.19
621.00	11461.60
622.00	11686.29
623.00	11894.60
624.00	12025.67
625.00	12029.57
626.00	11976.52
627.00	12031.91
628.00	12119.29
629.00	12231.64
630.00	12477.40
631.00	12658.40
632.00	12686.48
633.00	12644.35
634.00	12681.02
635.00	12865.92
636.00	13025.08
637.00	13245.09
638.00	13317.65
639.00	13315.31
640.00	13251.33
641.00	13299.70
642.00	13422.97
643.00	13533.76
644.00	13640.64
645.00	13724.12
646.00	13874.70
647.00	13865.33
648.00	13952.71
649.00	13920.73
650.00	14122.79
651.00	14280.39
652.00	14402.10
653.00	14505.86
654.00	14632.25
655.00	14828.07
656.00	14971.63
657.00	15037.16
658.00	15155.75
659.00	15345.33
660.00	15500.59
661.00	15561.44
662.00	15623.08
663.00	15669.11
664.00	15729.96
665.00	15651.94
666.00	15728.40
667.00	15892.24
668.00	16159.06
669.00	16244.10
670.00	16202.75
671.00	16209.77
672.00	16376.73
673.00	16549.93
674.00	16607.66
675.00	16682.56
676.00	16802.71
677.00	16919.73
678.00	16989.17
679.00	17108.54
680.00	17323.09
681.00	17496.28
682.00	17575.86
683.00	17662.46
684.00	17794.31
685.00	17917.58
686.00	18054.89
687.00	18226.53
688.00	18338.10
689.00	18420.80
690.00	18429.38
691.00	18555.77
692.00	18632.22
693.00	18815.57
694.00	18916.99
695.00	19050.40
696.00	19050.40
697.00	19185.37
698.00	19176.01
699.00	19259.49
700.00	19332.82
701.00	19435.81
702.00	19452.97
703.00	19545.81
704.00	19778.31
705.00	19955.41
706.00	19967.89
707.00	20074.77
708.00	20262.80
709.00	20524.16
710.00	20651.33
711.00	20818.28
712.00	20890.06
713.00	20952.48
714.00	20910.35
715.00	20930.63
716.00	20902.54
717.00	21109.29
718.00	21154.54
719.00	21336.32
720.00	21191.99
721.00	21316.04
722.00	21408.88
723.00	21719.39
724.00	21859.82
725.00	21891.03
726.00	21867.63
727.00	22043.17
728.00	22164.87
729.00	22300.62
730.00	22185.94
731.00	22119.62
732.00	22003.38
733.00	22104.02
734.00	22263.18
735.00	22430.13
736.00	22394.25
737.00	22480.85
738.00	22574.47
739.00	22650.92
740.00	22746.11
741.00	23009.81
742.00	23269.61
743.00	23258.68
744.00	23223.58
745.00	23323.44
746.00	23527.85
747.00	23527.07
748.00	23607.42
749.00	23701.04
750.00	23800.13
751.00	23724.45
752.00	23871.12
753.00	23885.17
754.00	24002.19
755.00	23939.78
756.00	24109.08
757.00	24183.98
758.00	24280.72
759.00	24393.06
760.00	24497.61
761.00	24638.82
762.00	24750.38
763.00	24875.99
764.00	24861.95
765.00	24861.17
766.00	24968.05
767.00	25011.74
768.00	25149.06
769.00	25244.24
770.00	25635.89
771.00	25609.36
772.00	25778.66
773.00	25742.77
774.00	25880.08
775.00	25920.65
776.00	25888.67
777.00	25978.39
778.00	26011.15
779.00	26146.12
780.00	26186.69
781.00	26331.81
782.00	26437.91
783.00	26798.35
784.00	26846.72
785.00	26923.18
786.00	26858.43
787.00	27012.90
788.00	27160.36
789.00	27307.81
790.00	27372.57
791.00	27381.93
792.00	27356.96
793.00	27268.80
794.00	27301.57
795.00	27314.05
796.00	27506.76
797.00	27612.86
798.00	27839.11
799.00	27986.57
800.00	28257.29
801.00	28250.27
802.00	28302.54
803.00	28233.88
804.00	28352.47
805.00	28457.79
806.00	28490.56
807.00	28472.62
808.00	28399.28
809.00	28627.87
810.00	28836.96
811.00	29059.31
812.00	29082.72
813.00	29237.19
814.00	29468.90
815.00	29713.10
816.00	29880.06
817.00	29940.13
818.00	29802.04
819.00	29734.95
820.00	29713.10
821.00	29862.90
822.00	30000.21
823.00	29961.20
824.00	29794.24
825.00	29807.50
826.00	29974.46
827.00	30183.55
828.00	30206.17
829.00	30334.90
830.00	30685.20
831.00	30781.95
832.00	30788.19
833.00	30625.13
834.00	30728.11
835.00	30793.65
836.00	31008.20
837.00	31205.58
838.00	31342.11
839.00	31496.59
840.00	31398.29
841.00	31377.22
842.00	31296.86
843.00	31488.79
844.00	31679.15
845.00	31881.22
846.00	31976.40
847.00	31988.88
848.00	31965.48
849.00	31994.34
850.00	31985.76
851.00	32055.98
852.00	32063.78
853.00	32252.58
854.00	32234.64
855.00	32343.86
856.00	32405.50
857.00	32530.33
858.00	32619.27
859.00	32770.62
860.00	32907.93
861.00	32925.10
862.00	32890.77
863.00	32990.63
864.00	33110.00
865.00	33318.31
866.00	33399.44
867.00	33579.67
868.00	33538.32
869.00	33741.94
870.00	33822.30
871.00	34144.52
872.00	34079.76
873.00	34186.64
874.00	34060.26
875.00	34192.11
876.00	34201.47
877.00	34469.07
878.00	34494.82
879.00	34620.42
880.00	34509.64
881.00	34558.01
882.00	34405.09
883.00	34473.75
884.00	34363.75
885.00	34263.10
886.00	34284.95
887.00	34377.79
888.00	34611.06
889.00	34676.60
890.00	34796.74
891.00	34936.40
892.00	35044.84
893.00	35102.57
894.00	35120.52
895.00	35142.36
896.00	35257.05
897.00	35240.67
898.00	35239.11
899.00	35314.78
900.00	35534.79
901.00	35857.01
902.00	36002.12
903.00	36215.11
904.00	36091.06
905.00	36264.26
906.00	36311.07
907.00	36308.73
908.00	36099.64
909.00	36364.90
910.00	36480.37
911.00	36569.31
912.00	36061.41
913.00	36130.85
914.00	36034.89
915.00	36251.78
916.00	36342.28
917.00	36649.67
918.00	36887.62
919.00	36840.81
920.00	36728.47
921.00	36758.89
922.00	36931.31
923.00	37081.11
924.00	37081.89
925.00	37198.13
926.00	37274.59
927.00	37161.47
928.00	37094.37
929.00	37248.07
930.00	37488.36
931.00	37717.73
932.00	37878.45
933.00	37863.63
934.00	37738.80
935.00	37602.27
936.00	37694.33
937.00	37742.70
938.00	37787.95
939.00	37883.91
940.00	38147.61
941.00	38055.55
942.00	38032.14
943.00	37918.24
944.00	38082.08
945.00	38180.38
946.00	38215.49
947.00	38360.60
948.00	38447.98
949.00	38685.15
950.00	38620.40
951.00	38426.14
952.00	37997.82
953.00	37950.23
954.00	38031.36
955.00	38266.20
956.00	38417.55
957.00	38689.84
958.00	39025.31
959.00	39219.58
960.00	39262.49
961.00	39090.07
962.00	39141.56
963.00	39205.53
964.00	39377.95
965.00	39507.46
966.00	39757.90
967.00	40212.74
968.00	40264.24
969.00	40232.25
970.00	40151.11
971.00	40368.78
972.00	40454.60
973.00	40333.67
974.00	40259.55
975.00	40300.90
976.00	40302.46
977.00	40034.08
978.00	39766.48
979.00	39668.96
980.00	39696.27
981.00	39956.85
982.00	40101.96
983.00	40492.83
984.00	40796.32
985.00	40996.04
986.00	41070.16
987.00	40688.65
988.00	40710.50
989.00	40516.23
990.00	40775.25
991.00	40593.47
992.00	40688.65
993.00	40610.64
994.00	40932.07
995.00	41152.08
996.00	41452.45
997.00	41595.22
998.00	41944.74
999.00	42087.51
1000.00	42050.84
1001.00	41894.03
1002.00	41769.98
1003.00	41673.24
1004.00	41673.24
1005.00	41828.49
1006.00	42046.16
1007.00	42116.38
1008.00	42444.84
1009.00	42520.51
1010.00	42564.20
1011.00	42217.02
1012.00	42145.25
1013.00	42167.09
1014.00	42214.68
1015.00	42259.93
1016.00	42372.28
1017.00	42722.58
1018.00	43144.66
1019.00	43264.02
1020.00	43132.17
1021.00	42976.92
1022.00	42838.83
1023.00	42755.35
1024.00	42662.50
1025.00	42850.53
1026.00	43241.40
1027.00	43578.43
1028.00	43752.41
1029.00	43717.31
1030.00	43638.51
1031.00	43704.04
1032.00	43759.44
1033.00	43813.27
1034.00	43640.07
1035.00	43484.03
1036.00	43477.01
1037.00	43580.78
1038.00	43784.40
1039.00	43911.57
1040.00	44078.53
1041.00	44263.43
1042.00	44298.54
1043.00	44378.12
1044.00	44481.88
1045.00	44612.95
1046.00	44569.26
1047.00	44309.46
1048.00	44328.97
1049.00	44368.76
1050.00	44657.42
1051.00	44813.46
1052.00	45190.28
1053.00	45102.90
1054.00	45167.66
1055.00	45003.04
1056.00	45111.49
1057.00	45119.29
1058.00	45206.67
1059.00	45240.21
1060.00	45201.99
1061.00	45102.12
1062.00	45072.48
1063.00	45068.58
1064.00	45229.29
1065.00	45387.67
1066.00	45546.83
1067.00	45826.13
1068.00	45791.80
1069.00	45662.29
1070.00	45364.26
1071.00	45607.68
1072.00	45876.06
1073.00	45996.99
1074.00	45993.09
1075.00	46055.50
1076.00	46039.90
1077.00	46034.44
1078.00	45983.72
1079.00	45928.33
1080.00	45943.94
1081.00	46025.07
1082.00	46087.49
1083.00	46050.04
1084.00	45940.04
1085.00	46032.88
1086.00	46254.45
1087.00	46472.90
1088.00	46490.84
1089.00	46607.87
1090.00	46600.85
1091.00	46743.62
1092.00	46823.98
1093.00	46923.84
1094.00	47293.64
1095.00	47237.47
1096.00	47345.14
1097.00	47228.11
1098.00	47256.98
1099.00	47310.81
1100.00	47275.70
1101.00	47342.80
1102.00	47260.88
1103.00	47285.84
1104.00	47191.44
1105.00	47264.00
1106.00	47216.41
1107.00	47256.20
1108.00	47336.55
1109.00	47455.92
1110.00	47741.47
1111.00	47592.45
1112.00	47683.73
1113.00	47487.13
1114.00	47457.48
1115.00	47253.08
1116.00	47235.91
1117.00	47302.23
1118.00	47424.71
1119.00	47491.03
1120.00	47661.89
1121.00	47604.94
1122.00	47602.60
1123.00	47350.60
1124.00	47352.94
1125.00	47259.32
1126.00	47301.45
1127.00	47373.22
1128.00	47566.71
1129.00	47640.82
1130.00	47814.02
1131.00	47686.07
1132.00	47831.97
1133.00	47683.73
1134.00	47673.59
1135.00	47757.07
1136.00	47843.67
1137.00	48122.97
1138.00	48127.66
1139.00	48218.16
1140.00	48080.06
1141.00	48082.41
1142.00	48105.03
1143.00	48220.50
1144.00	48203.33
1145.00	48157.30
1146.00	48158.08
1147.00	48169.01
1148.00	48247.80
1149.00	48181.49
1150.00	48327.38
1151.00	48349.23
1152.00	48641.79
1153.00	48620.73
1154.00	48495.90
1155.00	48209.57
1156.00	48020.77
1157.00	48118.29
1158.00	48114.39
1159.00	48311.00
1160.00	48422.56
1161.00	48742.44
1162.00	48875.85
1163.00	48942.16
1164.00	48922.66
1165.00	48902.37
1166.00	48804.07
1167.00	48634.77
1168.00	48694.85
1169.00	48712.79
1170.00	48734.63
1171.00	48583.28
1172.00	48516.96
1173.00	48630.87
1174.00	48686.26
1175.00	48737.76
1176.00	48637.89
1177.00	48505.26
1178.00	48389.80
1179.00	48302.42
1180.00	48568.46
1181.00	48863.36
1182.00	49173.10
1183.00	49230.83
1184.00	49275.30
1185.00	49173.10
1186.00	49117.70
1187.00	49191.82
1188.00	49246.43
1189.00	49191.82
1190.00	49141.11
1191.00	49095.86
1192.00	49037.34
1193.00	48944.50
1194.00	48914.86
1195.00	49013.16
1196.00	49086.50
1197.00	49171.53
1198.00	49183.24
1199.00	49232.39
1200.00	49144.23
1201.00	49169.97
1202.00	49008.48
1203.00	49305.73
1204.00	49278.42
1205.00	49459.42
1206.00	49425.87
1207.00	49542.90
1208.00	49432.89
1209.00	49238.63
1210.00	49168.41
1211.00	49063.87
1212.00	49219.13
1213.00	49234.73
1214.00	49376.72
1215.00	49237.07
1216.00	49210.54
1217.00	49306.51
1218.00	49328.35
1219.00	49452.40
1220.00	49354.88
1221.00	49411.05
1222.00	49437.58
1223.00	49484.39
1224.00	49435.24
1225.00	49380.62
1226.00	49353.32
1227.00	49440.70
1228.00	49388.42
1229.00	49365.02
1230.00	49343.95
1231.00	49521.83
1232.00	49697.38
1233.00	49773.83
1234.00	49702.06
1235.00	49572.55
1236.00	49695.81
1237.00	49695.81
1238.00	49968.88
1239.00	49996.96
1240.00	50202.93
1241.00	50253.64
1242.00	50255.98
1243.00	50246.62
1244.00	50153.78
1245.00	50177.97
1246.00	50153.00
1247.00	50270.81
1248.00	50397.20
1249.00	50525.92
1250.00	50434.64
1251.00	50267.69
1252.00	50006.33
1253.00	50082.78
1254.00	50095.27
1255.00	50088.24
1256.00	49922.85
1257.00	49759.79
1258.00	49947.03
1259.00	49925.19
1260.00	50086.68
1261.00	50145.20
1262.00	50465.07
1263.00	50817.71
1264.00	50973.75
1265.00	51008.08
1266.00	50913.67
1267.00	51089.21
1268.00	51192.98
1269.00	51298.30
1270.00	51022.12
1271.00	50799.77
1272.00	50639.83
1273.00	50720.19
1274.00	50785.72
1275.00	50712.39
1276.00	50627.35
1277.00	50523.58
1278.00	50578.98
1279.00	50675.72
1280.00	50781.04
1281.00	50878.57
1282.00	50915.23
1283.00	50920.70
1284.00	51006.51
1285.00	51109.50
1286.00	51415.33
1287.00	51246.03
1288.00	51114.18
1289.00	51068.15
1290.00	51263.97
1291.00	51469.94
1292.00	51533.14
1293.00	51591.65
1294.00	51525.33
1295.00	51472.28
1296.00	51491.79
1297.00	51483.20
1298.00	51395.04
1299.00	51217.16
1300.00	50990.13
1301.00	51055.67
1302.00	51158.65
1303.00	51357.60
1304.00	51487.10
1305.00	51557.32
1306.00	51664.99
1307.00	51401.28
1308.00	51355.25
1309.00	51214.82
1310.00	51366.18
1311.00	51357.60
1312.00	51487.88
1313.00	51433.27
1314.00	51682.93
1315.00	51790.59
1316.00	51951.31
1317.00	51894.36
1318.00	51932.59
1319.00	51813.22
1320.00	51852.23
1321.00	51831.94
1322.00	51960.67
1323.00	52011.38
1324.00	52120.61
1325.00	52122.95
1326.00	52081.60
1327.00	52277.43
1328.00	52428.78
1329.00	52789.22
1330.00	52824.33
1331.00	52921.07
1332.00	52540.35
1333.00	52167.42
1334.00	51959.89
1335.00	51906.84
1336.00	51885.78
1337.00	51845.21
1338.00	51727.40
1339.00	51779.67
1340.00	51853.79
1341.00	52016.07
1342.00	52043.37
1343.00	52094.08
1344.00	52197.85
1345.00	52371.83
1346.00	52224.37
1347.00	52206.43
1348.00	52050.39
1349.00	52299.27
1350.00	52243.10
1351.00	52371.05
1352.00	52097.98
1353.00	52253.24
1354.00	52088.62
1355.00	52291.47
1356.00	52335.94
1357.00	52644.11
1358.00	52583.26
1359.00	52484.95
1360.00	52338.28
1361.00	52439.70
1362.00	52418.64
1363.00	52458.43
1364.00	52429.56
1365.00	52527.86
1366.00	52470.13
1367.00	52438.14
1368.00	52421.76
1369.00	52574.67
1370.00	52614.46
1371.00	52552.05
1372.00	52375.73
1373.00	52495.88
1374.00	52637.09
1375.00	52825.11
1376.00	52779.86
1377.00	52600.42
1378.00	52450.63
1379.00	52370.27
1380.00	52344.52
1381.00	52388.99
1382.00	52314.09
1383.00	52396.01
1384.00	52138.55
1385.00	52059.76
1386.00	51868.61
1387.00	51905.28
1388.00	51904.50
1389.00	51972.38
1390.00	52083.16
1391.00	52098.76
1392.00	52180.68
1393.00	52169.76
1394.00	52377.29
1395.00	52392.89
1396.00	52477.15
1397.00	52328.92
1398.00	52337.50
1399.00	52374.95
1400.00	52339.06
1401.00	52157.28
1402.00	52099.54
1403.00	52221.25
1404.00	52401.47
1405.00	52322.68
1406.00	52272.74
1407.00	52262.60
1408.00	52364.03
1409.00	52381.97
1410.00	52492.75
1411.00	52587.16
1412.00	52707.30
1413.00	52728.37
1414.00	52736.17
1415.00	52687.80
1416.00	52617.58
1417.00	52601.98
1418.00	52569.99
1419.00	52601.20
1420.00	52676.10
1421.00	52723.69
1422.00	52699.50
1423.00	52561.41
1424.00	52660.49
1425.00	52656.59
1426.00	52689.36
1427.00	52673.76
1428.00	52635.53
1429.00	52515.38
1430.00	52311.75
1431.00	52191.61
1432.00	52086.28
1433.00	51997.34
1434.00	51983.30
1435.00	51996.56
1436.00	51927.13
1437.00	51885.00
1438.00	51866.27
1439.00	52000.46
1440.00	51966.91
1441.00	51889.68
1442.00	51811.66
1443.00	51838.18
1444.00	51869.39
1445.00	51902.16
1446.00	51985.64
1447.00	52198.63
1448.00	52232.96
1449.00	52225.93
1450.00	52221.25
1451.00	52346.86
1452.00	52479.49
1453.00	52571.55
1454.00	52452.97
1455.00	52328.92
1456.00	52154.16
1457.00	52236.08
1458.00	52247.78
1459.00	52179.90
1460.00	52087.06
1461.00	52106.57
1462.00	52026.21
1463.00	52000.46
1464.00	52019.97
1465.00	52123.73
1466.00	52080.04
1467.00	51991.10
1468.00	51987.20
1469.00	52111.25
1470.00	52067.56
1471.00	51973.94
1472.00	51873.29
1473.00	51942.73
1474.00	52068.34
1475.00	52129.19
1476.00	52116.71
1477.00	52125.29
1478.00	52034.79
1479.00	52112.03
1480.00	52026.21
1481.00	51922.44
1482.00	51814.78
1483.00	51681.37
1484.00	51717.26
1485.00	51572.14
1486.00	51538.60
1487.00	51481.64
1488.00	51464.48
1489.00	51494.91
1490.00	51507.39
1491.00	51523.77
1492.00	51469.16
1493.00	51448.10
1494.00	51486.32
1495.00	51572.92
1496.00	51657.18
1497.00	51668.89
1498.00	51728.18
1499.00	51733.64
1500.00	51845.21
1501.00	51952.87
1502.00	52031.67
1503.00	51901.38
1504.00	51776.55
1505.00	51686.83
1506.00	51636.12
1507.00	51430.15
1508.00	51338.87
1509.00	51415.33
1510.00	51592.43
1511.00	51611.15
1512.00	51622.08
1513.00	51601.79
1514.00	51506.61
1515.00	51388.80
1516.00	51356.81
1517.00	51451.22
1518.00	51527.67
1519.00	51478.52
1520.00	51389.58
1521.00	51292.84
1522.00	51306.88
1523.00	51499.59
1524.00	51515.19
1525.00	51354.47
1526.00	51139.14
1527.00	50977.65
1528.00	51086.09
1529.00	51060.35
1530.00	51091.55
1531.00	51100.14
1532.00	51146.95
1533.00	51348.23
1534.00	51208.58
1535.00	51282.70
1536.00	51332.63
1537.00	51689.17
1538.00	51704.77
1539.00	51563.56
1540.00	51340.43
1541.00	51256.17
1542.00	51278.80
1543.00	51375.54
1544.00	51497.25
1545.00	51528.45
1546.00	51429.37
1547.00	51173.47
1548.00	51105.60
1549.00	51137.58
1550.00	51198.44
1551.00	51097.80
1552.00	51011.20
1553.00	51006.51
1554.00	51022.90
1555.00	51055.67
1556.00	51125.10
1557.00	51235.11
1558.00	51241.35
1559.00	51223.40
1560.00	51003.39
1561.00	50820.05
1562.00	50725.65
1563.00	50704.59
1564.00	50711.61
1565.00	50617.99
1566.00	50624.23
1567.00	50496.28
1568.00	50344.92
1569.00	50067.18
1570.00	50113.99
1571.00	49996.18
1572.00	50160.80
1573.00	50035.97
1574.00	50196.69
1575.00	50259.88
1576.00	50270.03
1577.00	50337.12
1578.00	50353.51
1579.00	50545.43
1580.00	50547.77
1581.00	50571.17
1582.00	50663.24
1583.00	50670.26
1584.00	50742.81
1585.00	50605.50
1586.00	50533.73
1587.00	50400.32
1588.00	50614.86
1589.00	50787.28
1590.00	50788.84
1591.00	50383.15
1592.00	50192.79
1593.00	50050.02
1594.00	50127.25
1595.00	50074.98
1596.00	50195.13
1597.00	50220.87
1598.00	50152.22
1599.00	50126.47
1600.00	50175.62
1601.00	50272.37
1602.00	50149.10
1603.00	49968.88
1604.00	50033.63
1605.00	50094.49
1606.00	50222.44
1607.00	50003.99
1608.00	49938.45
1609.00	49862.77
1610.00	49854.19
1611.00	50018.03
1612.00	50047.68
1613.00	50109.31
1614.00	49993.84
1615.00	49905.68
1616.00	50004.77
1617.00	50241.94
1618.00	50419.04
1619.00	50492.38
1620.00	50419.04
1621.00	50326.20
1622.00	50291.87
1623.00	50080.44
1624.00	49950.15
1625.00	49790.22
1626.00	49615.46
1627.00	49649.00
1628.00	49620.92
1629.00	49801.92
1630.00	49810.50
1631.00	49860.43
1632.00	49900.22
1633.00	49920.51
1634.00	49996.18
1635.00	49986.82
1636.00	49973.56
1637.00	49789.44
1638.00	49594.39
1639.00	49523.40
1640.00	49585.03
1641.00	49620.14
1642.00	49521.05
1643.00	49478.93
1644.00	49381.40
1645.00	49370.48
1646.00	49273.74
1647.00	49262.82
1648.00	49396.23
1649.00	49440.70
1650.00	49517.15
1651.00	49447.72
1652.00	49547.58
1653.00	49498.43
1654.00	49522.62
1655.00	49361.12
1656.00	49265.16
1657.00	49209.76
1658.00	49242.53
1659.00	49377.50
1660.00	49251.11
1661.00	49155.15
1662.00	49007.70
1663.00	49188.70
1664.00	49301.82
1665.00	49557.72
1666.00	49534.32
1667.00	49489.07
1668.00	49229.27
1669.00	49036.56
1670.00	48967.91
1671.00	49003.80
1672.00	49162.95
1673.00	49177.78
1674.00	49217.57
1675.00	49264.38
1676.00	49396.23
1677.00	49266.72
1678.00	49043.59
1679.00	48765.84
1680.00	48726.83
1681.00	48763.50
1682.00	48733.85
1683.00	48697.19
1684.00	48553.63
1685.00	48609.03
1686.00	48703.43
1687.00	48833.72
1688.00	48864.92
1689.00	48797.05
1690.00	48673.78
1691.00	48615.27
1692.00	48481.08
1693.00	48374.19
1694.00	48011.41
1695.00	48019.99
1696.00	47782.04
1697.00	48026.23
1698.00	48132.34
1699.00	48410.08
1700.00	48547.39
1701.00	48676.12
1702.00	48854.78
1703.00	48836.84
1704.00	48701.09
1705.00	48522.43
1706.00	48410.08
1707.00	48364.05
1708.00	48319.58
1709.00	48264.97
1710.00	48163.54
1711.00	48056.66
1712.00	47814.80
1713.00	47683.73
1714.00	47608.84
1715.00	47751.61
1716.00	47810.12
1717.00	47890.48
1718.00	47906.08
1719.00	47821.05
1720.00	47533.94
1721.00	47377.12
1722.00	47333.43
1723.00	47494.93
1724.00	47576.07
1725.00	47611.96
1726.00	47621.32
1727.00	47448.12
1728.00	47161.01
1729.00	46896.53
1730.00	46898.09
1731.00	46854.40
1732.00	46789.65
1733.00	46430.77
1734.00	46247.43
1735.00	46211.54
1736.00	46226.36
1737.00	46149.12
1738.00	46035.22
1739.00	46143.66
1740.00	46035.22
1741.00	45956.42
1742.00	45679.46
1743.00	45624.06
1744.00	45541.36
1745.00	45264.40
1746.00	45340.86
1747.00	45272.20
1748.00	45393.13
1749.00	45379.87
1750.00	45162.98
1751.00	45009.28
1752.00	44681.61
1753.00	44481.88
1754.00	44364.07
1755.00	44302.44
1756.00	44425.71
1757.00	44548.98
1758.00	44346.13
1759.00	44348.47
1760.00	44312.58
1761.00	44413.23
1762.00	44233.78
1763.00	44021.58
1764.00	44073.07
1765.00	44032.50
1766.00	43917.03
1767.00	43640.07
1768.00	43635.39
1769.00	43695.46
1770.00	43873.34
1771.00	43821.85
1772.00	43768.80
1773.00	43599.50
1774.00	43512.12
1775.00	43304.59
1776.00	43129.83
1777.00	43033.09
1778.00	43143.88
1779.00	43218.77
1780.00	43204.73
1781.00	43060.40
1782.00	42886.42
1783.00	42632.86
1784.00	42417.53
1785.00	42273.98
1786.00	42132.76
1787.00	42039.92
1788.00	42018.08
1789.00	41985.31
1790.00	41688.06
1791.00	41316.70
1792.00	40982.78
1793.00	40879.02
1794.00	40820.50
1795.00	40650.42
1796.00	40671.49
1797.00	40526.38
1798.00	40382.82
1799.00	40212.74
1800.00	39966.99
1801.00	39896.77
1802.00	39623.71
1803.00	39392.00
1804.00	39278.87
1805.00	39029.99
1806.00	39121.27
1807.00	39060.42
1808.00	39036.23
1809.00	38837.29
1810.00	38681.25
1811.00	38685.15
1812.00	38602.46
1813.00	38440.96
1814.00	38305.21
1815.00	38246.69
1816.00	38193.64
1817.00	38063.35
1818.00	37891.71
1819.00	37791.85
1820.00	37516.45
1821.00	37308.92
1822.00	37241.04
1823.00	37205.16
1824.00	37173.95
1825.00	36837.69
1826.00	36700.38
1827.00	36447.60
1828.00	36348.52
1829.00	36268.16
1830.00	35810.20
1831.00	35737.64
1832.00	35635.44
1833.00	35786.79
1834.00	35614.37
1835.00	35324.15
1836.00	35050.30
1837.00	34902.85
1838.00	34686.74
1839.00	34433.96
1840.00	33954.93
1841.00	33626.48
1842.00	33683.43
1843.00	33561.72
1844.00	33484.48
1845.00	33252.77
1846.00	32920.42
1847.00	32514.72
1848.00	32253.36
1849.00	32205.77
1850.00	32162.08
1851.00	31887.46
1852.00	31813.34
1853.00	31781.35
1854.00	31729.08
1855.00	31548.86
1856.00	31319.49
1857.00	31138.49
1858.00	31023.02
1859.00	30941.88
1860.00	30738.26
1861.00	30530.73
1862.00	30277.95
1863.00	30247.52
1864.00	29997.87
1865.00	29988.50
1866.00	29804.38
1867.00	29732.61
1868.00	29442.38
1869.00	29276.20
1870.00	29013.28
1871.00	28688.73
1872.00	28254.17
1873.00	28035.72
1874.00	27901.53
1875.00	27863.30
1876.00	27804.78
1877.00	27715.06
1878.00	27514.56
1879.00	27172.06
1880.00	26817.08
1881.00	26672.74
1882.00	26713.31
1883.00	26710.19
1884.00	26547.92
1885.00	26295.92
1886.00	26079.81
1887.00	25991.65
1888.00	25659.29
1889.00	25537.59
1890.00	25397.93
1891.00	25362.83
1892.00	25149.84
1893.00	24835.42
1894.00	24650.52
1895.00	24490.59
1896.00	24405.55
1897.00	24385.26
1898.00	24220.64
1899.00	24124.68
1900.00	24102.06
1901.00	24118.44
1902.00	24072.41
1903.00	23868.00
1904.00	23652.67
1905.00	23513.02
1906.00	23300.81
1907.00	23116.69
1908.00	22919.31
1909.00	22809.30
1910.00	22675.89
1911.00	22380.98
1912.00	22036.92
1913.00	21919.12
1914.00	21802.09
1915.00	21738.12
1916.00	21536.05
1917.00	21457.25
1918.00	21248.94
1919.00	21121.77
1920.00	20936.87
1921.00	20772.25
1922.00	20610.76
1923.00	20551.46
1924.00	20436.78
1925.00	20303.37
1926.00	20039.67
1927.00	19747.88
1928.00	19559.08
1929.00	19389.78
1930.00	19429.57
1931.00	19363.25
1932.00	19250.13
1933.00	19136.22
1934.00	18984.09
1935.00	18933.37
1936.00	18772.66
1937.00	18646.27
1938.00	18531.58
1939.00	18407.53
1940.00	18208.59
1941.00	18045.53
1942.00	17946.45
1943.00	17910.56
1944.00	17756.08
1945.00	17699.91
1946.00	17547.00
1947.00	17413.59
1948.00	17287.20
1949.00	17262.23
1950.00	17164.71
1951.00	17066.41
1952.00	16901.79
1953.00	16879.16
1954.00	16696.60
1955.00	16600.64
1956.00	16389.21
1957.00	16285.45
1958.00	16120.05
1959.00	16050.61
1960.00	15942.17
1961.00	15896.92
1962.00	15822.80
1963.00	15717.48
1964.00	15541.94
1965.00	15302.42
1966.00	15175.25
1967.00	15060.57
1968.00	15042.62
1969.00	15018.44
1970.00	14968.51
1971.00	14828.07
1972.00	14711.83
1973.00	14726.65
1974.00	14677.50
1975.00	14574.52
1976.00	14309.26
1977.00	14140.74
1978.00	13985.48
1979.00	13957.39
1980.00	13941.79
1981.00	13895.76
1982.00	13796.68
1983.00	13696.82
1984.00	13550.14
1985.00	13432.33
1986.00	13383.96
1987.00	13359.00
1988.00	13316.87
1989.00	13155.37
1990.00	13076.57
1991.00	12923.66
1992.00	12870.61
1993.00	12751.24
1994.00	12688.82
1995.00	12589.74
1996.00	12425.12
1997.00	12265.19
1998.00	12237.10
1999.00	12259.73
2000.00	12359.59
2001.00	12230.86
2002.00	12113.83
2003.00	11995.25
2004.00	11999.93
2005.00	11874.32
2006.00	11710.48
2007.00	11654.31
2008.00	11580.19
2009.00	11587.99
2010.00	11400.75
2011.00	11438.98
2012.00	11374.22
2013.00	11332.09
2014.00	11276.70
2015.00	11172.94
2016.00	11118.32
2017.00	11087.90
2018.00	11048.89
2019.00	10978.67
2020.00	10763.34
2021.00	10707.17
2022.00	10667.38
2023.00	10696.25
2024.00	10620.57
2025.00	10521.49
2026.00	10464.54
2027.00	10441.13
2028.00	10406.80
2029.00	10381.84
2030.00	10256.23
2031.00	10292.12
2032.00	10190.69
2033.00	10221.90
2034.00	10089.27
2035.00	10008.13
2036.00	9928.55
2037.00	9844.29
2038.00	9790.46
2039.00	9674.99
2040.00	9662.51
2041.00	9657.05
2042.00	9639.89
2043.00	9586.05
2044.00	9585.27
2045.00	9505.70
2046.00	9387.89
2047.00	9172.56
>>>>>End Processed Spectral Data<<<<<
