SpectraSuite Data File
++++++++++++++++++++++++++++++++++++
Date: Thu Nov 16 14:04:29 EST 2017
User: cheriyan
Dark Spectrum Present: No
Reference Spectrum Present: No
Number of Sampled Component Spectra: 1
Spectrometers: USB2+H05261
Integration Time (usec): 100000 (USB2+H05261)
Spectra Averaged: 1 (USB2+H05261)
Boxcar Smoothing: 1 (USB2+H05261)
Correct for Electrical Dark: No (USB2+H05261)
Strobe/Lamp Enabled: No (USB2+H05261)
Correct for Detector Non-linearity: No (USB2+H05261)
Correct for Stray Light: No (USB2+H05261)
Number of Pixels in Processed Spectrum: 2048
>>>>>Begin Processed Spectral Data<<<<<
0.00	428.32
1.00	428.32
2.00	369.80
3.00	305.05
4.00	244.98
5.00	252.00
6.00	268.38
7.00	273.06
8.00	273.84
9.00	258.24
10.00	241.08
11.00	247.32
12.00	242.64
13.00	239.51
14.00	224.69
15.00	236.39
16.00	244.98
17.00	251.22
18.00	248.88
19.00	253.56
20.00	256.68
21.00	279.30
22.00	311.29
23.00	361.22
24.00	513.36
25.00	647.55
26.00	761.45
27.00	779.40
28.00	825.43
29.00	851.17
30.00	874.58
31.00	869.12
32.00	881.60
33.00	871.46
34.00	871.46
35.00	872.24
36.00	909.69
37.00	960.40
38.00	979.12
39.00	966.64
40.00	927.63
41.00	930.75
42.00	931.53
43.00	942.46
44.00	926.85
45.00	930.75
46.00	952.60
47.00	981.46
48.00	1007.21
49.00	1003.31
50.00	989.27
51.00	991.61
52.00	1024.37
53.00	1018.91
54.00	1015.01
55.00	1000.19
56.00	1023.59
57.00	1044.66
58.00	1054.80
59.00	1068.06
60.00	1055.58
61.00	1011.11
62.00	1030.62
63.00	1047.00
64.00	1057.92
65.00	1054.02
66.00	1041.54
67.00	1057.14
68.00	1054.80
69.00	1064.94
70.00	1092.25
71.00	1090.69
72.00	1076.65
73.00	1071.97
74.00	1074.31
75.00	1093.81
76.00	1082.89
77.00	1099.27
78.00	1084.45
79.00	1114.10
80.00	1102.39
81.00	1108.63
82.00	1110.97
83.00	1115.66
84.00	1140.62
85.00	1138.28
86.00	1162.47
87.00	1162.47
88.00	1192.89
89.00	1185.09
90.00	1210.06
91.00	1206.94
92.00	1216.30
93.00	1200.69
94.00	1205.38
95.00	1220.98
96.00	1208.50
97.00	1190.55
98.00	1179.63
99.00	1200.69
100.00	1217.86
101.00	1220.20
102.00	1243.60
103.00	1288.86
104.00	1308.36
105.00	1294.32
106.00	1259.99
107.00	1259.99
108.00	1288.07
109.00	1339.57
110.00	1373.11
111.00	1369.99
112.00	1350.49
113.00	1316.16
114.00	1314.60
115.00	1296.66
116.00	1340.35
117.00	1356.73
118.00	1388.72
119.00	1360.63
120.00	1401.20
121.00	1377.80
122.00	1398.86
123.00	1393.40
124.00	1436.31
125.00	1471.42
126.00	1437.09
127.00	1433.19
128.00	1399.64
129.00	1440.99
130.00	1445.67
131.00	1477.66
132.00	1483.12
133.00	1495.60
134.00	1510.43
135.00	1511.99
136.00	1527.59
137.00	1565.82
138.00	1627.45
139.00	1653.20
140.00	1632.91
141.00	1616.53
142.00	1613.41
143.00	1604.83
144.00	1618.09
145.00	1621.99
146.00	1653.20
147.00	1626.67
148.00	1657.88
149.00	1650.86
150.00	1664.90
151.00	1642.28
152.00	1652.42
153.00	1648.52
154.00	1696.89
155.00	1727.32
156.00	1776.47
157.00	1746.04
158.00	1746.04
159.00	1739.80
160.00	1766.32
161.00	1766.32
162.00	1767.10
163.00	1763.98
164.00	1826.40
165.00	1852.92
166.00	1864.63
167.00	1833.42
168.00	1834.98
169.00	1854.48
170.00	1863.07
171.00	1896.61
172.00	1902.86
173.00	1918.46
174.00	1914.56
175.00	1940.30
176.00	1982.43
177.00	1986.33
178.00	2033.15
179.00	1997.26
180.00	2027.68
181.00	1978.53
182.00	1989.46
183.00	1988.68
184.00	2037.83
185.00	2061.23
186.00	2058.89
187.00	2050.31
188.00	2051.87
189.00	2035.49
190.00	2021.44
191.00	2029.24
192.00	2071.37
193.00	2106.48
194.00	2140.81
195.00	2164.22
196.00	2172.02
197.00	2186.84
198.00	2206.34
199.00	2245.35
200.00	2260.18
201.00	2254.72
202.00	2289.04
203.00	2280.46
204.00	2342.88
205.00	2322.59
206.00	2374.86
207.00	2377.98
208.00	2388.91
209.00	2385.01
210.00	2373.30
211.00	2390.47
212.00	2390.47
213.00	2424.01
214.00	2409.19
215.00	2403.73
216.00	2381.89
217.00	2392.81
218.00	2431.82
219.00	2479.41
220.00	2516.08
221.00	2526.22
222.00	2509.83
223.00	2519.20
224.00	2544.94
225.00	2552.74
226.00	2595.65
227.00	2637.00
228.00	2665.09
229.00	2670.55
230.00	2648.71
231.00	2632.32
232.00	2649.49
233.00	2654.17
234.00	2711.12
235.00	2723.60
236.00	2769.63
237.00	2778.22
238.00	2777.44
239.00	2793.82
240.00	2835.95
241.00	2874.96
242.00	2889.78
243.00	2876.52
244.00	2890.56
245.00	2897.58
246.00	2927.23
247.00	2959.22
248.00	3013.83
249.00	3058.30
250.00	3056.74
251.00	3062.20
252.00	3071.56
253.00	3092.63
254.00	3080.93
255.00	3066.88
256.00	3097.31
257.00	3116.03
258.00	3186.25
259.00	3176.89
260.00	3207.31
261.00	3194.83
262.00	3246.32
263.00	3314.98
264.00	3387.54
265.00	3396.90
266.00	3339.94
267.00	3318.88
268.00	3346.19
269.00	3432.01
270.00	3487.40
271.00	3496.76
272.00	3550.59
273.00	3542.79
274.00	3586.48
275.00	3576.34
276.00	3616.13
277.00	3620.03
278.00	3635.63
279.00	3664.50
280.00	3717.55
281.00	3746.42
282.00	3720.67
283.00	3716.77
284.00	3711.31
285.00	3738.62
286.00	3754.22
287.00	3754.22
288.00	3747.98
289.00	3786.21
290.00	3842.38
291.00	3859.54
292.00	3851.74
293.00	3866.56
294.00	3940.68
295.00	3941.46
296.00	3948.48
297.00	3939.12
298.00	3974.23
299.00	3975.79
300.00	3954.73
301.00	3909.47
302.00	3950.82
303.00	3997.63
304.00	4088.92
305.00	4117.78
306.00	4138.07
307.00	4092.04
308.00	4071.75
309.00	4092.04
310.00	4134.17
311.00	4126.36
312.00	4113.10
313.00	4145.87
314.00	4131.83
315.00	4144.31
316.00	4162.25
317.00	4236.37
318.00	4275.38
319.00	4259.78
320.00	4272.26
321.00	4227.01
322.00	4258.99
323.00	4269.92
324.00	4382.26
325.00	4489.93
326.00	4536.74
327.00	4533.62
328.00	4432.97
329.00	4496.17
330.00	4532.84
331.00	4611.64
332.00	4605.39
333.00	4617.10
334.00	4640.50
335.00	4624.90
336.00	4678.73
337.00	4706.04
338.00	4696.68
339.00	4664.69
340.00	4704.48
341.00	4790.30
342.00	4805.12
343.00	4834.77
344.00	4840.23
345.00	4868.31
346.00	4890.94
347.00	4887.82
348.00	4900.30
349.00	4927.61
350.00	4995.48
351.00	5080.52
352.00	5083.64
353.00	5125.77
354.00	5085.98
355.00	5075.06
356.00	4972.86
357.00	5043.85
358.00	5042.29
359.00	5135.92
360.00	5147.62
361.00	5249.04
362.00	5319.26
363.00	5340.32
364.00	5286.49
365.00	5269.33
366.00	5275.57
367.00	5352.81
368.00	5372.31
369.00	5390.25
370.00	5433.16
371.00	5423.80
372.00	5513.52
373.00	5501.04
374.00	5544.73
375.00	5529.91
376.00	5567.35
377.00	5630.55
378.00	5622.75
379.00	5665.66
380.00	5674.24
381.00	5742.89
382.00	5763.18
383.00	5881.77
384.00	5905.95
385.00	5985.53
386.00	5985.53
387.00	6047.16
388.00	6079.15
389.00	6109.58
390.00	6132.20
391.00	6144.69
392.00	6189.94
393.00	6262.49
394.00	6337.39
395.00	6374.06
396.00	6449.74
397.00	6552.72
398.00	6596.41
399.00	6645.56
400.00	6591.73
401.00	6637.76
402.00	6587.05
403.00	6683.01
404.00	6761.03
405.00	6921.74
406.00	6927.21
407.00	6863.23
408.00	6725.14
409.00	6683.01
410.00	6753.23
411.00	6835.14
412.00	6866.35
413.00	6867.91
414.00	6919.40
415.00	6966.99
416.00	6995.08
417.00	6963.09
418.00	7015.37
419.00	7016.15
420.00	7109.77
421.00	7080.12
422.00	7169.84
423.00	7107.43
424.00	7115.23
425.00	7052.81
426.00	7052.81
427.00	7082.46
428.00	7163.60
429.00	7223.67
430.00	7259.56
431.00	7197.93
432.00	7190.91
433.00	7211.19
434.00	7273.60
435.00	7311.83
436.00	7252.54
437.00	7261.90
438.00	7268.92
439.00	7353.96
440.00	7461.63
441.00	7543.55
442.00	7573.97
443.00	7583.34
444.00	7606.74
445.00	7657.45
446.00	7644.97
447.00	7652.77
448.00	7641.07
449.00	7631.71
450.00	7750.29
451.00	7835.33
452.00	7919.59
453.00	7899.31
454.00	7927.39
455.00	7921.93
456.00	7987.47
457.00	8095.13
458.00	8233.22
459.00	8152.09
460.00	8087.33
461.00	8062.37
462.00	8133.36
463.00	8145.06
464.00	8198.12
465.00	8320.60
466.00	8369.76
467.00	8405.64
468.00	8406.42
469.00	8443.09
470.00	8482.10
471.00	8487.56
472.00	8513.31
473.00	8532.81
474.00	8561.68
475.00	8684.95
476.00	8689.63
477.00	8830.84
478.00	8912.76
479.00	9014.18
480.00	9029.79
481.00	9021.98
482.00	9071.14
483.00	9039.93
484.00	9143.69
485.00	9104.68
486.00	9174.90
487.00	9107.80
488.00	9260.72
489.00	9223.27
490.00	9270.86
491.00	9197.53
492.00	9348.10
493.00	9331.72
494.00	9514.28
495.00	9514.28
496.00	9660.95
497.00	9600.88
498.00	9641.45
499.00	9636.77
500.00	9689.82
501.00	9674.99
502.00	9742.09
503.00	9793.58
504.00	9897.35
505.00	9956.64
506.00	9982.38
507.00	9969.12
508.00	10013.59
509.00	10061.18
510.00	10147.78
511.00	10136.08
512.00	10167.29
513.00	10197.71
514.00	10260.13
515.00	10257.79
516.00	10346.73
517.00	10351.41
518.00	10494.18
519.00	10456.73
520.00	10571.42
521.00	10530.85
522.00	10540.21
523.00	10527.73
524.00	10643.20
525.00	10806.25
526.00	10824.20
527.00	10807.81
528.00	10765.68
529.00	10782.07
530.00	10788.31
531.00	10875.69
532.00	10928.74
533.00	10903.78
534.00	10851.50
535.00	10948.25
536.00	11049.67
537.00	11032.51
538.00	11004.42
539.00	11061.37
540.00	11247.83
541.00	11225.99
542.00	11222.87
543.00	11263.44
544.00	11385.15
545.00	11461.60
546.00	11459.26
547.00	11545.86
548.00	11651.97
549.00	11804.10
550.00	11761.97
551.00	11765.09
552.00	11737.01
553.00	11825.95
554.00	11870.42
555.00	11889.92
556.00	11966.38
557.00	12062.34
558.00	12177.81
559.00	12265.19
560.00	12317.46
561.00	12414.20
562.00	12445.41
563.00	12489.10
564.00	12475.06
565.00	12655.28
566.00	12878.41
567.00	12862.02
568.00	12766.06
569.00	12574.92
570.00	12781.67
571.00	12939.26
572.00	13103.88
573.00	13069.55
574.00	13107.00
575.00	13249.77
576.00	13502.55
577.00	13654.69
578.00	13767.81
579.00	13819.30
580.00	13924.63
581.00	13885.62
582.00	13980.80
583.00	14046.34
584.00	14295.21
585.00	14377.91
586.00	14581.54
587.00	14469.97
588.00	14372.45
589.00	14312.38
590.00	14473.87
591.00	14653.31
592.00	14795.31
593.00	14995.03
594.00	15171.35
595.00	15289.16
596.00	15502.15
597.00	15680.03
598.00	15878.19
599.00	15956.21
600.00	16139.55
601.00	16100.55
602.00	16135.65
603.00	16223.81
604.00	16528.86
605.00	16849.52
606.00	16957.96
607.00	17010.23
608.00	16980.59
609.00	17086.69
610.00	17209.18
611.00	17292.66
612.00	17412.81
613.00	17594.59
614.00	17809.14
615.00	17916.80
616.00	17994.82
617.00	18129.01
618.00	18378.67
619.00	18539.38
620.00	18721.16
621.00	18862.38
622.00	19010.61
623.00	19355.45
624.00	19405.38
625.00	19576.24
626.00	19463.90
627.00	19687.03
628.00	19807.95
629.00	20017.04
630.00	20372.02
631.00	20500.75
632.00	20549.90
633.00	20610.76
634.00	21013.33
635.00	21206.81
636.00	21320.72
637.00	21347.25
638.00	21648.40
639.00	21756.84
640.00	21820.81
641.00	21829.40
642.00	22051.75
643.00	22327.93
644.00	22607.23
645.00	22721.14
646.00	22865.47
647.00	22807.74
648.00	22886.54
649.00	23096.41
650.00	23523.94
651.00	23915.59
652.00	24004.53
653.00	24230.79
654.00	24343.13
655.00	24636.48
656.00	24721.52
657.00	24964.15
658.00	25041.39
659.00	25209.13
660.00	25249.70
661.00	25371.41
662.00	25486.09
663.00	25672.56
664.00	25864.48
665.00	25966.68
666.00	26154.71
667.00	26351.31
668.00	26458.20
669.00	26600.19
670.00	26728.14
671.00	27101.06
672.00	27182.98
673.00	27144.75
674.00	27210.29
675.00	27440.44
676.00	27659.67
677.00	27742.37
678.00	27889.04
679.00	28286.93
680.00	28541.27
681.00	28667.66
682.00	28781.57
683.00	29020.30
684.00	29244.99
685.00	29376.84
686.00	29482.95
687.00	29701.40
688.00	29782.54
689.00	30007.23
690.00	30064.18
691.00	30405.90
692.00	30394.98
693.00	30543.99
694.00	30721.09
695.00	31108.84
696.00	31257.85
697.00	31457.58
698.00	31639.36
699.00	31797.74
700.00	31847.67
701.00	32001.36
702.00	32211.23
703.00	32373.51
704.00	32458.55
705.00	32767.50
706.00	33127.94
707.00	33375.26
708.00	33477.46
709.00	33688.89
710.00	33724.78
711.00	34014.23
712.00	33961.17
713.00	34263.88
714.00	34327.86
715.00	34407.44
716.00	34259.98
717.00	34492.47
718.00	34585.32
719.00	34796.74
720.00	34739.01
721.00	34873.20
722.00	34983.99
723.00	35127.54
724.00	35411.53
725.00	35648.70
726.00	35697.85
727.00	35810.20
728.00	35970.91
729.00	36233.83
730.00	36380.51
731.00	36371.14
732.00	36425.76
733.00	36349.30
734.00	36336.82
735.00	36437.46
736.00	36484.27
737.00	36850.17
738.00	37025.71
739.00	37367.43
740.00	37372.89
741.00	37546.87
742.00	37641.28
743.00	37586.66
744.00	37558.58
745.00	37609.29
746.00	37967.39
747.00	38189.74
748.00	38366.06
749.00	38533.02
750.00	38637.56
751.00	38707.00
752.00	39012.05
753.00	39056.52
754.00	39426.32
755.00	39337.38
756.00	39743.86
757.00	39703.29
758.00	39849.96
759.00	39824.22
760.00	39977.13
761.00	40142.53
762.00	40322.75
763.00	40455.38
764.00	40470.20
765.00	40470.20
766.00	40512.33
767.00	40798.66
768.00	40952.35
769.00	41234.78
770.00	41375.21
771.00	41461.81
772.00	41695.08
773.00	41822.25
774.00	42114.04
775.00	42095.32
776.00	42243.55
777.00	42512.71
778.00	42678.89
779.00	42852.87
780.00	42684.35
781.00	42866.13
782.00	42923.08
783.00	43083.80
784.00	43164.16
785.00	43398.21
786.00	43732.91
787.00	43906.11
788.00	44062.93
789.00	44145.62
790.00	44211.16
791.00	44305.56
792.00	44389.04
793.00	44556.00
794.00	44776.01
795.00	44949.99
796.00	45139.57
797.00	45111.49
798.00	45270.64
799.00	45317.45
800.00	45423.56
801.00	45413.41
802.00	45593.64
803.00	45769.18
804.00	45973.58
805.00	46140.54
806.00	46344.95
807.00	46298.92
808.00	46305.16
809.00	46354.31
810.00	46738.16
811.00	46930.86
812.00	46987.03
813.00	46944.12
814.00	47231.23
815.00	47353.72
816.00	47513.66
817.00	47318.61
818.00	47366.98
819.00	47414.57
820.00	47516.78
821.00	47640.82
822.00	47763.31
823.00	47828.85
824.00	48061.34
825.00	48217.38
826.00	48457.67
827.00	48666.76
828.00	48694.07
829.00	48790.81
830.00	48661.30
831.00	48739.32
832.00	48843.08
833.00	48887.55
834.00	48978.05
835.00	49020.96
836.00	49077.13
837.00	49176.22
838.00	49294.02
839.00	49478.14
840.00	49704.40
841.00	49962.64
842.00	50213.85
843.00	50360.53
844.00	50436.20
845.00	50640.61
846.00	50721.75
847.00	50887.93
848.00	50807.57
849.00	50845.02
850.00	50734.23
851.00	50830.19
852.00	50858.28
853.00	50935.52
854.00	51036.16
855.00	51141.49
856.00	51287.38
857.00	51348.23
858.00	51441.07
859.00	51488.66
860.00	51489.45
861.00	51509.73
862.00	51565.12
863.00	51696.19
864.00	51750.80
865.00	51786.69
866.00	51899.04
867.00	52011.38
868.00	52147.14
869.00	52282.11
870.00	52279.77
871.00	52417.08
872.00	52371.83
873.00	52542.69
874.00	52584.82
875.00	52699.50
876.00	52918.73
877.00	52885.18
878.00	53006.89
879.00	52921.85
880.00	53105.98
881.00	53095.05
882.00	53070.87
883.00	52995.97
884.00	52896.11
885.00	52943.70
886.00	53051.36
887.00	53278.39
888.00	53422.73
889.00	53502.31
890.00	53485.92
891.00	53515.57
892.00	53590.47
893.00	53556.14
894.00	53535.07
895.00	53497.62
896.00	53584.22
897.00	53681.75
898.00	53745.72
899.00	53900.20
900.00	54014.10
901.00	54170.14
902.00	54233.33
903.00	54283.26
904.00	54358.94
905.00	54504.06
906.00	54672.57
907.00	54637.47
908.00	54469.73
909.00	54491.57
910.00	54516.54
911.00	54669.45
912.00	54644.49
913.00	54776.34
914.00	54717.04
915.00	54672.57
916.00	54526.68
917.00	54602.36
918.00	54591.44
919.00	54606.26
920.00	54600.80
921.00	54695.98
922.00	54855.92
923.00	54922.23
924.00	54909.75
925.00	55031.46
926.00	55307.64
927.00	55474.60
928.00	55486.30
929.00	55473.04
930.00	55560.42
931.00	55485.52
932.00	55527.65
933.00	55495.66
934.00	55552.62
935.00	55469.92
936.00	55615.81
937.00	55686.03
938.00	55734.40
939.00	55701.63
940.00	55860.79
941.00	55895.11
942.00	55985.61
943.00	56058.95
944.00	56127.61
945.00	56188.46
946.00	56179.10
947.00	56171.30
948.00	56190.02
949.00	56230.59
950.00	56356.98
951.00	56435.00
952.00	56401.45
953.00	56343.72
954.00	56423.29
955.00	56532.52
956.00	56733.81
957.00	56672.95
958.00	56788.42
959.00	56825.87
960.00	56836.79
961.00	56816.50
962.00	56813.38
963.00	56968.64
964.00	57100.49
965.00	57184.75
966.00	57280.71
967.00	57393.84
968.00	57438.31
969.00	57393.84
970.00	57403.98
971.00	57519.45
972.00	57672.36
973.00	57652.86
974.00	57677.04
975.00	57680.16
976.00	57678.60
977.00	57620.09
978.00	57542.07
979.00	57613.07
980.00	57670.80
981.00	57876.77
982.00	57867.40
983.00	57901.73
984.00	57911.88
985.00	57889.25
986.00	57922.80
987.00	57769.88
988.00	57908.75
989.00	57915.00
990.00	58120.96
991.00	58106.92
992.00	58199.76
993.00	58176.36
994.00	58265.30
995.00	58407.29
996.00	58559.42
997.00	58766.17
998.00	58848.09
999.00	58975.26
1000.00	58981.50
1001.00	58972.14
1002.00	58825.46
1003.00	58622.62
1004.00	58525.88
1005.00	58566.44
1006.00	58720.92
1007.00	58873.84
1008.00	58889.44
1009.00	58749.01
1010.00	58685.03
1011.00	58702.98
1012.00	58951.07
1013.00	59028.31
1014.00	59104.77
1015.00	59098.53
1016.00	59164.84
1017.00	59179.67
1018.00	59210.09
1019.00	59314.64
1020.00	59410.60
1021.00	59564.29
1022.00	59556.49
1023.00	59497.98
1024.00	59352.08
1025.00	59380.95
1026.00	59553.37
1027.00	59710.97
1028.00	59743.73
1029.00	59643.09
1030.00	59582.24
1031.00	59632.95
1032.00	59740.61
1033.00	59844.38
1034.00	59862.32
1035.00	59919.27
1036.00	59936.44
1037.00	59943.46
1038.00	59976.23
1039.00	59903.67
1040.00	59965.31
1041.00	60032.40
1042.00	60165.81
1043.00	60275.82
1044.00	60285.18
1045.00	60385.04
1046.00	60449.80
1047.00	60449.02
1048.00	60485.68
1049.00	60452.92
1050.00	60640.16
1051.00	60672.93
1052.00	60708.82
1053.00	60607.39
1054.00	60518.45
1055.00	60389.72
1056.00	60356.95
1057.00	60475.54
1058.00	60669.81
1059.00	60750.94
1060.00	60811.02
1061.00	60771.23
1062.00	60880.45
1063.00	60835.20
1064.00	60850.03
1065.00	60765.77
1066.00	60804.78
1067.00	60863.29
1068.00	60936.63
1069.00	60914.78
1070.00	60928.05
1071.00	60963.93
1072.00	61079.40
1073.00	61117.63
1074.00	61097.34
1075.00	61131.67
1076.00	61165.22
1077.00	61285.37
1078.00	61328.28
1079.00	61455.45
1080.00	61452.33
1081.00	61584.18
1082.00	61617.72
1083.00	61663.75
1084.00	61638.79
1085.00	61622.40
1086.00	61607.58
1087.00	61570.13
1088.00	61531.90
1089.00	61610.70
1090.00	61672.34
1091.00	61700.42
1092.00	61688.72
1093.00	61621.62
1094.00	61655.17
1095.00	61652.05
1096.00	61692.62
1097.00	61772.98
1098.00	61825.25
1099.00	61883.76
1100.00	61860.36
1101.00	61897.03
1102.00	61893.13
1103.00	61881.42
1104.00	61925.89
1105.00	61982.85
1106.00	62080.37
1107.00	62099.09
1108.00	62148.24
1109.00	62138.10
1110.00	62262.15
1111.00	62156.05
1112.00	62135.76
1113.00	61936.82
1114.00	62057.74
1115.00	62052.28
1116.00	62065.55
1117.00	62056.18
1118.00	62038.24
1119.00	62087.39
1120.00	62120.16
1121.00	62200.52
1122.00	62337.83
1123.00	62345.63
1124.00	62410.38
1125.00	62284.00
1126.00	62300.38
1127.00	62213.00
1128.00	62301.94
1129.00	62234.84
1130.00	62307.40
1131.00	62333.15
1132.00	62453.29
1133.00	62439.25
1134.00	62360.45
1135.00	62275.41
1136.00	62269.17
1137.00	62333.15
1138.00	62369.82
1139.00	62443.93
1140.00	62531.31
1141.00	62606.99
1142.00	62598.41
1143.00	62543.80
1144.00	62569.54
1145.00	62581.24
1146.00	62661.60
1147.00	62624.93
1148.00	62674.09
1149.00	62649.12
1150.00	62653.02
1151.00	62548.48
1152.00	62534.43
1153.00	62558.62
1154.00	62546.14
1155.00	62416.63
1156.00	62413.51
1157.00	62482.16
1158.00	62591.39
1159.00	62669.40
1160.00	62763.81
1161.00	62848.06
1162.00	62802.03
1163.00	62724.02
1164.00	62540.67
1165.00	62573.44
1166.00	62647.56
1167.00	62857.43
1168.00	62899.56
1169.00	62973.67
1170.00	62973.67
1171.00	62936.23
1172.00	62855.87
1173.00	62833.24
1174.00	62802.81
1175.00	62784.87
1176.00	62764.59
1177.00	62795.79
1178.00	62791.89
1179.00	62791.89
1180.00	62845.72
1181.00	62819.98
1182.00	62836.36
1183.00	62784.09
1184.00	62914.38
1185.00	62908.92
1186.00	62902.68
1187.00	62887.85
1188.00	62983.04
1189.00	62976.01
1190.00	62971.33
1191.00	62891.76
1192.00	62871.47
1193.00	62779.41
1194.00	62787.99
1195.00	62851.19
1196.00	62871.47
1197.00	62884.73
1198.00	62873.03
1199.00	62965.09
1200.00	62988.50
1201.00	63042.33
1202.00	62977.57
1203.00	63063.39
1204.00	62984.60
1205.00	63107.86
1206.00	62972.89
1207.00	62997.86
1208.00	62909.70
1209.00	62963.53
1210.00	63086.80
1211.00	63117.23
1212.00	63173.40
1213.00	63165.60
1214.00	63110.99
1215.00	63051.69
1216.00	62919.06
1217.00	62944.03
1218.00	63007.22
1219.00	63121.13
1220.00	63118.01
1221.00	63051.69
1222.00	63011.90
1223.00	63102.40
1224.00	63105.52
1225.00	63088.36
1226.00	63056.37
1227.00	63054.81
1228.00	62991.62
1229.00	62971.33
1230.00	63010.34
1231.00	63135.95
1232.00	63126.59
1233.00	63114.89
1234.00	63054.81
1235.00	63142.97
1236.00	63269.36
1237.00	63370.00
1238.00	63387.95
1239.00	63430.86
1240.00	63433.20
1241.00	63480.01
1242.00	63404.33
1243.00	63447.24
1244.00	63352.84
1245.00	63405.89
1246.00	63430.08
1247.00	63559.59
1248.00	63621.22
1249.00	63664.13
1250.00	63573.63
1251.00	63581.43
1252.00	63569.73
1253.00	63748.39
1254.00	63702.36
1255.00	63690.66
1256.00	63604.84
1257.00	63631.36
1258.00	63646.19
1259.00	63570.51
1260.00	63607.96
1261.00	63662.57
1262.00	63817.05
1263.00	63863.86
1264.00	63864.64
1265.00	63842.79
1266.00	63795.20
1267.00	63789.74
1268.00	63838.89
1269.00	63916.91
1270.00	63955.14
1271.00	63988.69
1272.00	64025.35
1273.00	64111.17
1274.00	64161.89
1275.00	64108.05
1276.00	64050.32
1277.00	63964.50
1278.00	64029.26
1279.00	64024.57
1280.00	64062.02
1281.00	64047.20
1282.00	64158.77
1283.00	64204.80
1284.00	64204.02
1285.00	64193.87
1286.00	64268.77
1287.00	64310.12
1288.00	64289.84
1289.00	64189.19
1290.00	64197.77
1291.00	64236.00
1292.00	64289.05
1293.00	64267.21
1294.00	64185.29
1295.00	64214.16
1296.00	64287.49
1297.00	64324.94
1298.00	64283.59
1299.00	64295.30
1300.00	64323.38
1301.00	64356.93
1302.00	64307.78
1303.00	64332.74
1304.00	64381.12
1305.00	64324.16
1306.00	64361.61
1307.00	64285.15
1308.00	64423.25
1309.00	64390.48
1310.00	64404.52
1311.00	64393.60
1312.00	64492.68
1313.00	64590.98
1314.00	64626.09
1315.00	64549.63
1316.00	64568.36
1317.00	64495.02
1318.00	64548.07
1319.00	64534.03
1320.00	64639.36
1321.00	64739.22
1322.00	64861.71
1323.00	64906.96
1324.00	64890.57
1325.00	64793.05
1326.00	64697.09
1327.00	64665.10
1328.00	64605.81
1329.00	64680.70
1330.00	64631.55
1331.00	64779.01
1332.00	64782.91
1333.00	64943.62
1334.00	64859.37
1335.00	64858.59
1336.00	64767.30
1337.00	64867.17
1338.00	64902.28
1339.00	64977.17
1340.00	65008.38
1341.00	65076.26
1342.00	65089.52
1343.00	65076.26
1344.00	65019.30
1345.00	64984.97
1346.00	64875.75
1347.00	64842.20
1348.00	64737.66
1349.00	64722.05
1350.00	64618.29
1351.00	64647.94
1352.00	64598.01
1353.00	64655.74
1354.00	64605.03
1355.00	64675.24
1356.00	64723.61
1357.00	64842.20
1358.00	64849.22
1359.00	64938.94
1360.00	64975.61
1361.00	65051.29
1362.00	64967.03
1363.00	64942.06
1364.00	64887.45
1365.00	64993.56
1366.00	64938.16
1367.00	64961.57
1368.00	64889.79
1369.00	64935.04
1370.00	64970.93
1371.00	64866.39
1372.00	64776.67
1373.00	64718.15
1374.00	64776.67
1375.00	64794.61
1376.00	64818.80
1377.00	64793.05
1378.00	64879.65
1379.00	64878.09
1380.00	64916.32
1381.00	64940.50
1382.00	64995.90
1383.00	65132.43
1384.00	65126.19
1385.00	65123.07
1386.00	65105.12
1387.00	65154.27
1388.00	65169.88
1389.00	65094.98
1390.00	65040.37
1391.00	65064.55
1392.00	65127.75
1393.00	65090.30
1394.00	65009.16
1395.00	64869.51
1396.00	64835.18
1397.00	64759.50
1398.00	64729.86
1399.00	64756.38
1400.00	64818.02
1401.00	64918.66
1402.00	64922.56
1403.00	64866.39
1404.00	64794.61
1405.00	64711.91
1406.00	64693.97
1407.00	64658.86
1408.00	64715.81
1409.00	64703.33
1410.00	64803.97
1411.00	64792.27
1412.00	64874.19
1413.00	64860.93
1414.00	64922.56
1415.00	65020.86
1416.00	65069.23
1417.00	65060.65
1418.00	65002.92
1419.00	64924.12
1420.00	64960.01
1421.00	64881.99
1422.00	64921.78
1423.00	64836.74
1424.00	64798.51
1425.00	64686.95
1426.00	64612.83
1427.00	64669.78
1428.00	64679.14
1429.00	64676.80
1430.00	64747.02
1431.00	64884.33
1432.00	65013.06
1433.00	64916.32
1434.00	64843.76
1435.00	64793.05
1436.00	64757.16
1437.00	64743.12
1438.00	64718.93
1439.00	64760.28
1440.00	64808.65
1441.00	64866.39
1442.00	64935.82
1443.00	64923.34
1444.00	64882.77
1445.00	64809.43
1446.00	64750.92
1447.00	64723.61
1448.00	64693.19
1449.00	64668.22
1450.00	64700.99
1451.00	64729.86
1452.00	64692.41
1453.00	64682.26
1454.00	64783.69
1455.00	64858.59
1456.00	64798.51
1457.00	64699.43
1458.00	64803.97
1459.00	64899.93
1460.00	64907.74
1461.00	64757.94
1462.00	64615.95
1463.00	64458.35
1464.00	64463.03
1465.00	64540.27
1466.00	64616.73
1467.00	64576.94
1468.00	64516.09
1469.00	64527.79
1470.00	64530.91
1471.00	64573.04
1472.00	64636.23
1473.00	64635.45
1474.00	64618.29
1475.00	64611.27
1476.00	64683.83
1477.00	64778.23
1478.00	64729.86
1479.00	64718.93
1480.00	64621.41
1481.00	64635.45
1482.00	64637.79
1483.00	64585.52
1484.00	64551.98
1485.00	64445.09
1486.00	64388.14
1487.00	64244.58
1488.00	64182.95
1489.00	64151.74
1490.00	64190.75
1491.00	64272.67
1492.00	64312.46
1493.00	64377.22
1494.00	64324.16
1495.00	64381.12
1496.00	64321.04
1497.00	64267.99
1498.00	64245.36
1499.00	64278.91
1500.00	64400.62
1501.00	64325.72
1502.00	64330.40
1503.00	64316.36
1504.00	64455.23
1505.00	64488.00
1506.00	64502.04
1507.00	64357.71
1508.00	64329.62
1509.00	64284.37
1510.00	64303.88
1511.00	64249.27
1512.00	64197.77
1513.00	64222.74
1514.00	64199.33
1515.00	64185.29
1516.00	64072.95
1517.00	64083.87
1518.00	63980.88
1519.00	64028.48
1520.00	64033.16
1521.00	64099.47
1522.00	64118.20
1523.00	64026.91
1524.00	64020.67
1525.00	63977.76
1526.00	63995.71
1527.00	63982.44
1528.00	64031.60
1529.00	64006.63
1530.00	63912.23
1531.00	63824.07
1532.00	63929.39
1533.00	64042.52
1534.00	64071.38
1535.00	63987.91
1536.00	63962.94
1537.00	63912.23
1538.00	63923.93
1539.00	63943.44
1540.00	63994.93
1541.00	63969.96
1542.00	63928.61
1543.00	63917.69
1544.00	64001.17
1545.00	64048.76
1546.00	64101.03
1547.00	63977.76
1548.00	63963.72
1549.00	63856.06
1550.00	63854.50
1551.00	63814.71
1552.00	63884.14
1553.00	63987.13
1554.00	64004.29
1555.00	63913.79
1556.00	63824.07
1557.00	63756.97
1558.00	63804.56
1559.00	63842.01
1560.00	63824.07
1561.00	63819.39
1562.00	63804.56
1563.00	63861.52
1564.00	63803.00
1565.00	63795.98
1566.00	63759.31
1567.00	63831.87
1568.00	63767.12
1569.00	63715.62
1570.00	63650.09
1571.00	63564.27
1572.00	63522.92
1573.00	63465.19
1574.00	63458.94
1575.00	63408.23
1576.00	63383.27
1577.00	63383.27
1578.00	63448.80
1579.00	63476.11
1580.00	63468.31
1581.00	63378.59
1582.00	63390.29
1583.00	63465.19
1584.00	63480.79
1585.00	63438.66
1586.00	63223.33
1587.00	63168.72
1588.00	63167.16
1589.00	63395.75
1590.00	63433.20
1591.00	63348.16
1592.00	63202.27
1593.00	63155.46
1594.00	63260.00
1595.00	63240.49
1596.00	63306.03
1597.00	63243.62
1598.00	63288.87
1599.00	63340.36
1600.00	63382.49
1601.00	63359.86
1602.00	63341.92
1603.00	63291.21
1604.00	63295.89
1605.00	63217.09
1606.00	63228.79
1607.00	63227.23
1608.00	63157.02
1609.00	63054.03
1610.00	63043.11
1611.00	63145.31
1612.00	63245.96
1613.00	63295.11
1614.00	63296.67
1615.00	63326.31
1616.00	63348.94
1617.00	63389.51
1618.00	63280.28
1619.00	63199.15
1620.00	63111.77
1621.00	63157.80
1622.00	63164.82
1623.00	63181.98
1624.00	63144.53
1625.00	63127.37
1626.00	63161.70
1627.00	63190.56
1628.00	63236.59
1629.00	63267.02
1630.00	63309.15
1631.00	63313.83
1632.00	63316.95
1633.00	63260.00
1634.00	63242.06
1635.00	63080.56
1636.00	63008.00
1637.00	62916.72
1638.00	62854.31
1639.00	62802.81
1640.00	62757.56
1641.00	62812.18
1642.00	62848.85
1643.00	62919.84
1644.00	62923.74
1645.00	62898.00
1646.00	62798.91
1647.00	62805.94
1648.00	62908.14
1649.00	62947.93
1650.00	62856.65
1651.00	62583.58
1652.00	62559.40
1653.00	62575.78
1654.00	62673.30
1655.00	62640.54
1656.00	62580.46
1657.00	62656.14
1658.00	62749.76
1659.00	62886.29
1660.00	62946.37
1661.00	62956.51
1662.00	63015.02
1663.00	62959.63
1664.00	62986.94
1665.00	62907.36
1666.00	62933.10
1667.00	62851.97
1668.00	62827.78
1669.00	62784.09
1670.00	62846.50
1671.00	62893.32
1672.00	62999.42
1673.00	62943.25
1674.00	62974.45
1675.00	62874.59
1676.00	62826.22
1677.00	62677.99
1678.00	62594.51
1679.00	62561.74
1680.00	62521.95
1681.00	62513.37
1682.00	62502.45
1683.00	62493.08
1684.00	62474.36
1685.00	62454.07
1686.00	62465.00
1687.00	62443.93
1688.00	62383.86
1689.00	62319.10
1690.00	62197.40
1691.00	62183.35
1692.00	62218.46
1693.00	62320.66
1694.00	62344.07
1695.00	62394.78
1696.00	62430.67
1697.00	62427.55
1698.00	62294.92
1699.00	62156.83
1700.00	62099.87
1701.00	62089.73
1702.00	62120.94
1703.00	62104.55
1704.00	62095.19
1705.00	62021.86
1706.00	61953.98
1707.00	61794.04
1708.00	61743.33
1709.00	61639.57
1710.00	61737.09
1711.00	61806.53
1712.00	61989.87
1713.00	61999.23
1714.00	61954.76
1715.00	61900.93
1716.00	61858.80
1717.00	61780.78
1718.00	61686.38
1719.00	61617.72
1720.00	61675.46
1721.00	61652.05
1722.00	61630.99
1723.00	61567.79
1724.00	61487.43
1725.00	61489.77
1726.00	61403.17
1727.00	61403.17
1728.00	61368.07
1729.00	61441.40
1730.00	61498.36
1731.00	61525.66
1732.00	61503.82
1733.00	61456.23
1734.00	61501.48
1735.00	61535.80
1736.00	61581.05
1737.00	61556.87
1738.00	61462.47
1739.00	61348.56
1740.00	61126.99
1741.00	61077.06
1742.00	61072.38
1743.00	61101.25
1744.00	61081.74
1745.00	60968.61
1746.00	60965.49
1747.00	60870.31
1748.00	60889.04
1749.00	60903.08
1750.00	60892.16
1751.00	60801.66
1752.00	60698.67
1753.00	60633.92
1754.00	60561.36
1755.00	60531.71
1756.00	60546.54
1757.00	60505.97
1758.00	60394.40
1759.00	60302.34
1760.00	60296.88
1761.00	60307.80
1762.00	60255.53
1763.00	60106.52
1764.00	59940.34
1765.00	59890.41
1766.00	60047.22
1767.00	60090.91
1768.00	60065.17
1769.00	59977.01
1770.00	60120.56
1771.00	60109.64
1772.00	60084.67
1773.00	59866.22
1774.00	59870.90
1775.00	59826.43
1776.00	59885.73
1777.00	59842.04
1778.00	59756.22
1779.00	59666.50
1780.00	59555.71
1781.00	59570.53
1782.00	59611.88
1783.00	59544.01
1784.00	59523.72
1785.00	59498.76
1786.00	59487.06
1787.00	59392.65
1788.00	59261.58
1789.00	59295.91
1790.00	59235.84
1791.00	59261.58
1792.00	59213.99
1793.00	59146.90
1794.00	59025.97
1795.00	58950.29
1796.00	58921.43
1797.00	58881.64
1798.00	58851.99
1799.00	58902.70
1800.00	58805.96
1801.00	58793.48
1802.00	58807.52
1803.00	58751.35
1804.00	58640.56
1805.00	58419.77
1806.00	58374.52
1807.00	58292.60
1808.00	58177.14
1809.00	58096.00
1810.00	58014.08
1811.00	57871.31
1812.00	57673.14
1813.00	57489.02
1814.00	57487.46
1815.00	57482.00
1816.00	57368.87
1817.00	57249.50
1818.00	57189.43
1819.00	57129.36
1820.00	57075.52
1821.00	57006.09
1822.00	56941.33
1823.00	56937.43
1824.00	56948.35
1825.00	57054.46
1826.00	57124.67
1827.00	57172.27
1828.00	57055.24
1829.00	56885.94
1830.00	56461.52
1831.00	56326.55
1832.00	56131.51
1833.00	56019.94
1834.00	55882.63
1835.00	55813.19
1836.00	55677.44
1837.00	55650.92
1838.00	55458.21
1839.00	55498.00
1840.00	55372.39
1841.00	55465.24
1842.00	55590.06
1843.00	55560.42
1844.00	55468.36
1845.00	55293.60
1846.00	55168.77
1847.00	54877.76
1848.00	54522.00
1849.00	54302.77
1850.00	54253.62
1851.00	54273.90
1852.00	54245.04
1853.00	54298.87
1854.00	54241.14
1855.00	54031.27
1856.00	53762.89
1857.00	53656.00
1858.00	53703.59
1859.00	53639.62
1860.00	53430.53
1861.00	53190.23
1862.00	52952.28
1863.00	52946.82
1864.00	52878.94
1865.00	52906.25
1866.00	52711.99
1867.00	52648.01
1868.00	52429.56
1869.00	52312.53
1870.00	52126.85
1871.00	52015.29
1872.00	51907.62
1873.00	51856.91
1874.00	51817.12
1875.00	51594.77
1876.00	51273.34
1877.00	51002.61
1878.00	51000.27
1879.00	50934.74
1880.00	50890.27
1881.00	50567.27
1882.00	50373.79
1883.00	50117.89
1884.00	50092.15
1885.00	49959.51
1886.00	49925.97
1887.00	49926.75
1888.00	49796.46
1889.00	49533.54
1890.00	49241.75
1891.00	49320.55
1892.00	49425.09
1893.00	49506.23
1894.00	49516.37
1895.00	49217.57
1896.00	48927.34
1897.00	48670.66
1898.00	48626.19
1899.00	48565.34
1900.00	48395.26
1901.00	47986.44
1902.00	47778.14
1903.00	47538.62
1904.00	47682.17
1905.00	47670.47
1906.00	47416.91
1907.00	47193.78
1908.00	46976.89
1909.00	47026.82
1910.00	46946.47
1911.00	46653.90
1912.00	46326.22
1913.00	46006.35
1914.00	45791.80
1915.00	45837.83
1916.00	45822.23
1917.00	45771.52
1918.00	45311.21
1919.00	44920.34
1920.00	44584.08
1921.00	44294.64
1922.00	44176.83
1923.00	44038.74
1924.00	43872.56
1925.00	43797.66
1926.00	43522.26
1927.00	43117.35
1928.00	42707.76
1929.00	42559.52
1930.00	42585.27
1931.00	42350.43
1932.00	41919.77
1933.00	41826.15
1934.00	41800.41
1935.00	41887.79
1936.00	41628.77
1937.00	41430.60
1938.00	41167.68
1939.00	41058.46
1940.00	40805.68
1941.00	40650.42
1942.00	40182.32
1943.00	39853.08
1944.00	39573.00
1945.00	39583.14
1946.00	39677.54
1947.00	39514.48
1948.00	39495.76
1949.00	39191.49
1950.00	39116.59
1951.00	38898.14
1952.00	38644.59
1953.00	38338.76
1954.00	37970.51
1955.00	37850.36
1956.00	37714.61
1957.00	37495.38
1958.00	37166.93
1959.00	36843.93
1960.00	36625.48
1961.00	36412.49
1962.00	36186.24
1963.00	35899.14
1964.00	35743.88
1965.00	35564.44
1966.00	35421.67
1967.00	35104.92
1968.00	34950.44
1969.00	34593.90
1970.00	34295.09
1971.00	33754.43
1972.00	33575.77
1973.00	33440.79
1974.00	33468.88
1975.00	33293.34
1976.00	33001.55
1977.00	32793.25
1978.00	32535.79
1979.00	32204.21
1980.00	32087.18
1981.00	31882.00
1982.00	31754.83
1983.00	31409.99
1984.00	31196.22
1985.00	31170.47
1986.00	30884.93
1987.00	30668.82
1988.00	30423.84
1989.00	30433.99
1990.00	30395.76
1991.00	30145.32
1992.00	29806.72
1993.00	29467.34
1994.00	29237.97
1995.00	29134.99
1996.00	28859.59
1997.00	28730.08
1998.00	28586.52
1999.00	28381.34
2000.00	28138.70
2001.00	27889.82
2002.00	28058.34
2003.00	27910.89
2004.00	27633.14
2005.00	27084.68
2006.00	26789.77
2007.00	26391.10
2008.00	26196.06
2009.00	25999.45
2010.00	25959.66
2011.00	25864.48
2012.00	25830.15
2013.00	25681.14
2014.00	25424.46
2015.00	25177.14
2016.00	25108.49
2017.00	25088.98
2018.00	24843.23
2019.00	24570.16
2020.00	24315.05
2021.00	24231.57
2022.00	23958.50
2023.00	23888.29
2024.00	23730.69
2025.00	23629.27
2026.00	23351.52
2027.00	23156.48
2028.00	23055.84
2029.00	22923.99
2030.00	22731.28
2031.00	22645.46
2032.00	22475.38
2033.00	22508.15
2034.00	22234.31
2035.00	22028.34
2036.00	21691.30
2037.00	21475.20
2038.00	21301.22
2039.00	20935.31
2040.00	20726.22
2041.00	20577.21
2042.00	20488.27
2043.00	20440.68
2044.00	20333.01
2045.00	20276.06
2046.00	20162.15
2047.00	20105.20
>>>>>End Processed Spectral Data<<<<<
