SpectraSuite Data File
++++++++++++++++++++++++++++++++++++
Date: Thu Nov 16 14:11:33 EST 2017
User: cheriyan
Dark Spectrum Present: No
Reference Spectrum Present: No
Number of Sampled Component Spectra: 1
Spectrometers: USB2+H05261
Integration Time (usec): 100000 (USB2+H05261)
Spectra Averaged: 1 (USB2+H05261)
Boxcar Smoothing: 1 (USB2+H05261)
Correct for Electrical Dark: No (USB2+H05261)
Strobe/Lamp Enabled: No (USB2+H05261)
Correct for Detector Non-linearity: No (USB2+H05261)
Correct for Stray Light: No (USB2+H05261)
Number of Pixels in Processed Spectrum: 2048
>>>>>Begin Processed Spectral Data<<<<<
0.00	294.91
1.00	294.91
2.00	288.67
3.00	254.34
4.00	241.08
5.00	251.22
6.00	244.98
7.00	227.03
8.00	222.35
9.00	236.39
10.00	255.90
11.00	247.32
12.00	277.74
13.00	264.48
14.00	244.20
15.00	225.47
16.00	234.05
17.00	248.10
18.00	249.66
19.00	262.92
20.00	269.16
21.00	262.14
22.00	283.20
23.00	315.19
24.00	440.80
25.00	553.15
26.00	649.89
27.00	667.05
28.00	645.99
29.00	667.05
30.00	657.69
31.00	644.43
32.00	614.78
33.00	646.77
34.00	692.80
35.00	738.05
36.00	709.18
37.00	702.16
38.00	716.20
39.00	750.53
40.00	772.38
41.00	738.05
42.00	762.23
43.00	765.36
44.00	768.48
45.00	757.55
46.00	747.41
47.00	741.95
48.00	726.35
49.00	721.67
50.00	752.09
51.00	763.79
52.00	795.00
53.00	771.60
54.00	732.59
55.00	702.94
56.00	718.54
57.00	764.57
58.00	800.46
59.00	813.73
60.00	834.01
61.00	835.57
62.00	848.05
63.00	828.55
64.00	834.79
65.00	819.97
66.00	814.51
67.00	804.36
68.00	796.56
69.00	800.46
70.00	790.32
71.00	816.85
72.00	837.91
73.00	860.54
74.00	863.66
75.00	851.17
76.00	805.92
77.00	828.55
78.00	827.77
79.00	854.30
80.00	816.07
81.00	827.77
82.00	845.71
83.00	848.83
84.00	869.90
85.00	861.32
86.00	889.40
87.00	885.50
88.00	904.23
89.00	877.70
90.00	854.30
91.00	886.28
92.00	900.33
93.00	926.85
94.00	926.85
95.00	920.61
96.00	940.90
97.00	907.35
98.00	922.95
99.00	915.93
100.00	930.75
101.00	956.50
102.00	966.64
103.00	959.62
104.00	895.64
105.00	890.96
106.00	903.45
107.00	973.66
108.00	976.00
109.00	997.07
110.00	971.32
111.00	968.98
112.00	928.41
113.00	929.19
114.00	943.24
115.00	988.49
116.00	1040.76
117.00	1010.33
118.00	979.90
119.00	979.12
120.00	1019.69
121.00	1053.24
122.00	1056.36
123.00	1036.08
124.00	1056.36
125.00	995.51
126.00	1024.37
127.00	1029.84
128.00	1073.53
129.00	1055.58
130.00	1030.62
131.00	1066.50
132.00	1106.29
133.00	1129.70
134.00	1114.88
135.00	1102.39
136.00	1094.59
137.00	1115.66
138.00	1141.40
139.00	1169.49
140.00	1178.07
141.00	1155.44
142.00	1146.86
143.00	1118.78
144.00	1131.26
145.00	1159.35
146.00	1171.05
147.00	1195.23
148.00	1161.69
149.00	1181.19
150.00	1162.47
151.00	1181.19
152.00	1163.25
153.00	1172.61
154.00	1215.52
155.00	1231.90
156.00	1223.32
157.00	1169.49
158.00	1210.06
159.00	1217.08
160.00	1264.67
161.00	1259.99
162.00	1275.59
163.00	1255.31
164.00	1256.87
165.00	1281.05
166.00	1302.90
167.00	1309.92
168.00	1311.48
169.00	1332.54
170.00	1324.74
171.00	1330.98
172.00	1307.58
173.00	1309.14
174.00	1316.16
175.00	1373.89
176.00	1412.12
177.00	1424.61
178.00	1377.02
179.00	1366.87
180.00	1384.04
181.00	1421.49
182.00	1411.34
183.00	1433.97
184.00	1441.77
185.00	1476.88
186.00	1442.55
187.00	1451.91
188.00	1470.64
189.00	1495.60
190.00	1483.12
191.00	1503.40
192.00	1519.79
193.00	1552.56
194.00	1526.81
195.00	1537.73
196.00	1568.94
197.00	1567.38
198.00	1568.16
199.00	1540.07
200.00	1540.07
201.00	1551.00
202.00	1521.35
203.00	1540.07
204.00	1552.56
205.00	1590.00
206.00	1602.49
207.00	1591.56
208.00	1599.37
209.00	1611.07
210.00	1674.26
211.00	1689.87
212.00	1659.44
213.00	1614.97
214.00	1614.19
215.00	1663.34
216.00	1675.04
217.00	1703.13
218.00	1721.07
219.00	1717.17
220.00	1717.95
221.00	1701.57
222.00	1734.34
223.00	1745.26
224.00	1773.35
225.00	1742.92
226.00	1746.04
227.00	1741.36
228.00	1792.07
229.00	1795.97
230.00	1786.61
231.00	1763.20
232.00	1742.92
233.00	1746.82
234.00	1774.13
235.00	1856.82
236.00	1931.72
237.00	1952.79
238.00	1912.22
239.00	1866.97
240.00	1838.10
241.00	1842.78
242.00	1856.04
243.00	1882.57
244.00	1930.94
245.00	1983.99
246.00	2020.66
247.00	2016.76
248.00	1992.58
249.00	2031.58
250.00	2051.09
251.00	2072.15
252.00	2071.37
253.00	2048.75
254.00	2059.67
255.00	2076.06
256.00	2111.94
257.00	2142.37
258.00	2104.14
259.00	2127.55
260.00	2185.28
261.00	2239.89
262.00	2264.86
263.00	2260.96
264.00	2268.76
265.00	2273.44
266.00	2259.40
267.00	2278.12
268.00	2280.46
269.00	2271.88
270.00	2254.72
271.00	2273.44
272.00	2306.99
273.00	2353.80
274.00	2362.38
275.00	2347.56
276.00	2346.78
277.00	2335.07
278.00	2382.67
279.00	2406.85
280.00	2446.64
281.00	2431.82
282.00	2460.68
283.00	2464.58
284.00	2509.83
285.00	2496.57
286.00	2507.49
287.00	2464.58
288.00	2462.24
289.00	2490.33
290.00	2549.62
291.00	2538.70
292.00	2518.42
293.00	2512.96
294.00	2537.14
295.00	2570.69
296.00	2574.59
297.00	2605.02
298.00	2588.63
299.00	2615.16
300.00	2629.98
301.00	2640.12
302.00	2661.19
303.00	2711.12
304.00	2779.00
305.00	2771.19
306.00	2682.25
307.00	2650.27
308.00	2663.53
309.00	2700.98
310.00	2706.44
311.00	2707.22
312.00	2721.26
313.00	2738.43
314.00	2723.60
315.00	2716.58
316.00	2741.55
317.00	2761.05
318.00	2784.46
319.00	2803.96
320.00	2810.98
321.00	2816.44
322.00	2837.51
323.00	2851.55
324.00	2875.74
325.00	2867.16
326.00	2912.41
327.00	2961.56
328.00	2966.24
329.00	2974.82
330.00	2941.27
331.00	2936.59
332.00	2933.47
333.00	2947.51
334.00	2980.28
335.00	3013.83
336.00	3050.50
337.00	3085.61
338.00	3083.27
339.00	3098.87
340.00	3103.55
341.00	3147.24
342.00	3118.37
343.00	3163.62
344.00	3187.03
345.00	3247.88
346.00	3226.82
347.00	3206.53
348.00	3221.36
349.00	3268.95
350.00	3303.28
351.00	3342.28
352.00	3336.82
353.00	3374.27
354.00	3350.87
355.00	3317.32
356.00	3287.67
357.00	3327.46
358.00	3375.05
359.00	3398.46
360.00	3417.96
361.00	3439.03
362.00	3450.73
363.00	3446.83
364.00	3421.86
365.00	3420.30
366.00	3419.52
367.00	3486.62
368.00	3580.24
369.00	3594.28
370.00	3598.96
371.00	3555.27
372.00	3581.80
373.00	3609.89
374.00	3592.72
375.00	3607.55
376.00	3629.39
377.00	3657.48
378.00	3667.62
379.00	3655.92
380.00	3660.60
381.00	3689.46
382.00	3698.05
383.00	3779.97
384.00	3770.60
385.00	3814.29
386.00	3821.31
387.00	3875.15
388.00	3833.02
389.00	3840.82
390.00	3861.10
391.00	3921.96
392.00	3970.33
393.00	4044.45
394.00	4054.59
395.00	4070.97
396.00	4060.83
397.00	4166.93
398.00	4212.18
399.00	4275.38
400.00	4250.41
401.00	4260.56
402.00	4255.87
403.00	4319.85
404.00	4363.54
405.00	4411.13
406.00	4427.51
407.00	4391.63
408.00	4315.95
409.00	4268.36
410.00	4310.49
411.00	4377.58
412.00	4471.20
413.00	4480.57
414.00	4450.14
415.00	4368.22
416.00	4350.28
417.00	4429.85
418.00	4465.74
419.00	4489.15
420.00	4440.78
421.00	4503.19
422.00	4500.85
423.00	4514.89
424.00	4466.52
425.00	4489.93
426.00	4499.29
427.00	4511.77
428.00	4539.86
429.00	4591.35
430.00	4551.56
431.00	4566.39
432.00	4599.15
433.00	4660.79
434.00	4673.27
435.00	4690.43
436.00	4709.94
437.00	4760.65
438.00	4745.05
439.00	4785.62
440.00	4751.29
441.00	4807.46
442.00	4862.07
443.00	4841.01
444.00	4813.70
445.00	4793.42
446.00	4889.38
447.00	4951.79
448.00	5029.81
449.00	5000.94
450.00	4953.35
451.00	4894.06
452.00	4939.31
453.00	5011.09
454.00	5035.27
455.00	5075.06
456.00	5120.31
457.00	5200.67
458.00	5163.22
459.00	5117.19
460.00	5122.65
461.00	5167.90
462.00	5238.12
463.00	5277.91
464.00	5320.82
465.00	5325.50
466.00	5316.14
467.00	5414.44
468.00	5455.79
469.00	5508.84
470.00	5497.92
471.00	5511.18
472.00	5533.81
473.00	5582.18
474.00	5646.15
475.00	5693.74
476.00	5670.34
477.00	5677.36
478.00	5637.57
479.00	5646.93
480.00	5573.60
481.00	5614.95
482.00	5660.20
483.00	5751.48
484.00	5807.65
485.00	5856.02
486.00	5861.48
487.00	5797.51
488.00	5785.02
489.00	5888.79
490.00	5920.78
491.00	5947.30
492.00	5935.60
493.00	6012.06
494.00	5998.01
495.00	5999.57
496.00	6044.82
497.00	6089.29
498.00	6118.94
499.00	6149.37
500.00	6200.86
501.00	6198.52
502.00	6163.41
503.00	6132.20
504.00	6189.16
505.00	6208.66
506.00	6266.39
507.00	6301.50
508.00	6392.78
509.00	6436.47
510.00	6440.37
511.00	6432.57
512.00	6485.62
513.00	6597.19
514.00	6619.04
515.00	6672.09
516.00	6593.29
517.00	6645.56
518.00	6580.81
519.00	6615.13
520.00	6711.88
521.00	6744.64
522.00	6771.17
523.00	6719.68
524.00	6772.73
525.00	6832.02
526.00	6770.39
527.00	6778.97
528.00	6754.01
529.00	6771.17
530.00	6782.09
531.00	6810.18
532.00	6884.30
533.00	6928.77
534.00	6919.40
535.00	6998.20
536.00	6933.45
537.00	6993.52
538.00	6966.99
539.00	7084.02
540.00	7172.96
541.00	7201.05
542.00	7163.60
543.00	7157.36
544.00	7178.42
545.00	7324.32
546.00	7289.21
547.00	7311.83
548.00	7200.27
549.00	7256.44
550.00	7337.58
551.00	7422.62
552.00	7493.62
553.00	7470.99
554.00	7511.56
555.00	7524.82
556.00	7524.82
557.00	7560.71
558.00	7584.90
559.00	7658.23
560.00	7733.91
561.00	7772.14
562.00	7822.07
563.00	7808.03
564.00	7832.99
565.00	7915.69
566.00	8044.42
567.00	8115.42
568.00	8133.36
569.00	8092.79
570.00	8171.59
571.00	8258.97
572.00	8305.78
573.00	8305.00
574.00	8297.98
575.00	8321.38
576.00	8429.05
577.00	8472.74
578.00	8576.50
579.00	8482.88
580.00	8528.13
581.00	8554.66
582.00	8723.18
583.00	8825.38
584.00	8995.46
585.00	9016.52
586.00	9045.39
587.00	8970.49
588.00	9047.73
589.00	9139.79
590.00	9224.05
591.00	9292.71
592.00	9373.85
593.00	9517.40
594.00	9623.50
595.00	9756.13
596.00	9909.83
597.00	10019.83
598.00	10009.69
599.00	10039.34
600.00	10100.19
601.00	10192.25
602.00	10183.67
603.00	10228.92
604.00	10370.13
605.00	10558.16
606.00	10661.14
607.00	10644.76
608.00	10622.91
609.00	10672.84
610.00	10749.30
611.00	10714.19
612.00	10725.11
613.00	10850.72
614.00	11030.16
615.00	11130.03
616.00	11168.26
617.00	11255.64
618.00	11430.40
619.00	11480.33
620.00	11643.38
621.00	11598.13
622.00	11684.73
623.00	11816.58
624.00	11967.16
625.00	12100.57
626.00	12085.75
627.00	12129.44
628.00	12230.86
629.00	12328.38
630.00	12564.00
631.00	12717.69
632.00	12831.60
633.00	12970.47
634.00	13112.46
635.00	13134.31
636.00	13160.83
637.00	13253.67
638.00	13394.89
639.00	13498.65
640.00	13440.14
641.00	13522.06
642.00	13561.84
643.00	13799.02
644.00	13929.31
645.00	14024.49
646.00	13969.10
647.00	14073.64
648.00	14143.08
649.00	14320.96
650.00	14398.20
651.00	14584.66
652.00	14632.25
653.00	14771.12
654.00	14874.88
655.00	15039.50
656.00	15183.84
657.00	15223.62
658.00	15288.38
659.00	15389.80
660.00	15516.19
661.00	15574.70
662.00	15665.99
663.00	15738.54
664.00	15926.57
665.00	15960.11
666.00	16142.67
667.00	16185.58
668.00	16325.24
669.00	16289.35
670.00	16447.72
671.00	16507.80
672.00	16762.92
673.00	16780.86
674.00	16884.62
675.00	16823.77
676.00	16953.28
677.00	17009.45
678.00	17172.51
679.00	17405.78
680.00	17519.69
681.00	17726.44
682.00	17720.20
683.00	17933.96
684.00	18091.56
685.00	18207.81
686.00	18300.65
687.00	18342.78
688.00	18455.90
689.00	18576.83
690.00	18709.46
691.00	18844.43
692.00	18963.02
693.00	19005.15
694.00	19087.85
695.00	19183.03
696.00	19161.19
697.00	19349.99
698.00	19332.04
699.00	19493.54
700.00	19452.97
701.00	19558.30
702.00	19660.50
703.00	19765.82
704.00	19952.29
705.00	20148.89
706.00	20308.05
707.00	20404.79
708.00	20407.13
709.00	20575.65
710.00	20645.87
711.00	20792.54
712.00	20888.50
713.00	21007.87
714.00	21035.17
715.00	21035.17
716.00	21165.46
717.00	21517.32
718.00	21686.62
719.00	21719.39
720.00	21533.71
721.00	21556.33
722.00	21703.79
723.00	21851.24
724.00	21901.95
725.00	21910.54
726.00	22009.62
727.00	22229.63
728.00	22402.83
729.00	22659.51
730.00	22698.52
731.00	22689.93
732.00	22469.14
733.00	22331.83
734.00	22297.50
735.00	22511.27
736.00	22710.22
737.00	22924.77
738.00	22891.22
739.00	23095.63
740.00	23161.94
741.00	23466.99
742.00	23394.43
743.00	23436.56
744.00	23393.65
745.00	23527.07
746.00	23667.50
747.00	23830.55
748.00	23900.77
749.00	23885.17
750.00	23846.16
751.00	23896.87
752.00	24137.94
753.00	24249.51
754.00	24386.82
755.00	24254.19
756.00	24320.51
757.00	24240.93
758.00	24407.11
759.00	24366.54
760.00	24667.69
761.00	24824.50
762.00	25088.20
763.00	25245.80
764.00	25330.84
765.00	25450.99
766.00	25485.31
767.00	25504.04
768.00	25631.99
769.00	25703.76
770.00	25836.39
771.00	25922.21
772.00	26036.90
773.00	26185.13
774.00	26301.38
775.00	26310.74
776.00	26384.08
777.00	26434.79
778.00	26448.83
779.00	26470.68
780.00	26515.93
781.00	26720.34
782.00	26838.92
783.00	26998.86
784.00	27077.66
785.00	27234.47
786.00	27218.09
787.00	27412.35
788.00	27490.37
789.00	27618.32
790.00	27669.03
791.00	27688.54
792.00	27786.84
793.00	27688.54
794.00	27814.93
795.00	27838.33
796.00	28127.00
797.00	28098.91
798.00	28301.76
799.00	28323.60
800.00	28549.07
801.00	28613.05
802.00	28604.47
803.00	28648.16
804.00	28641.92
805.00	28753.48
806.00	28963.35
807.00	29037.47
808.00	29152.15
809.00	29069.45
810.00	29226.27
811.00	29372.16
812.00	29474.37
813.00	29539.90
814.00	29706.08
815.00	29894.88
816.00	30069.64
817.00	30152.34
818.00	30089.15
819.00	30075.88
820.00	30014.25
821.00	30174.19
822.00	30295.89
823.00	30435.55
824.00	30428.52
825.00	30365.33
826.00	30341.92
827.00	30625.13
828.00	30831.88
829.00	30927.06
830.00	30922.38
831.00	31080.75
832.00	31374.88
833.00	31328.07
834.00	31334.31
835.00	31157.21
836.00	31424.03
837.00	31619.08
838.00	31875.76
839.00	31874.20
840.00	31953.77
841.00	31882.78
842.00	31919.45
843.00	31943.63
844.00	32148.82
845.00	32292.37
846.00	32279.11
847.00	32264.28
848.00	32307.97
849.00	32582.60
850.00	32662.18
851.00	32844.74
852.00	32685.58
853.00	32653.59
854.00	32514.72
855.00	32596.64
856.00	32766.72
857.00	32868.14
858.00	33023.40
859.00	33103.76
860.00	33168.51
861.00	33202.84
862.00	33354.97
863.00	33565.62
864.00	33632.72
865.00	33676.41
866.00	33850.39
867.00	34113.31
868.00	34255.30
869.00	34437.08
870.00	34632.91
871.00	34813.91
872.00	34630.57
873.00	34458.15
874.00	34496.38
875.00	34537.73
876.00	34486.23
877.00	34356.72
878.00	34559.57
879.00	34866.18
880.00	34844.34
881.00	34737.45
882.00	34441.76
883.00	34379.35
884.00	34532.26
885.00	34646.95
886.00	34880.22
887.00	34826.39
888.00	34993.35
889.00	35033.14
890.00	35103.35
891.00	35289.04
892.00	35545.72
893.00	35664.30
894.00	35567.56
895.00	35434.15
896.00	35564.44
897.00	35584.72
898.00	35791.47
899.00	35939.71
900.00	36222.91
901.00	36353.20
902.00	36456.96
903.00	36486.61
904.00	36599.74
905.00	36755.77
906.00	36762.79
907.00	36708.96
908.00	36547.47
909.00	36867.34
910.00	36819.75
911.00	36694.92
912.00	36165.18
913.00	36199.51
914.00	36311.85
915.00	36683.22
916.00	36869.68
917.00	37101.39
918.00	37251.19
919.00	37140.40
920.00	37051.46
921.00	37109.97
922.00	37292.54
923.00	37390.84
924.00	37261.33
925.00	37182.53
926.00	37285.51
927.00	37526.59
928.00	37899.51
929.00	38062.57
930.00	38110.16
931.00	38027.46
932.00	38050.87
933.00	37973.63
934.00	37893.27
935.00	37898.73
936.00	38174.14
937.00	38375.42
938.00	38283.36
939.00	38123.43
940.00	38246.69
941.00	38341.10
942.00	38536.92
943.00	38671.11
944.00	38789.70
945.00	38751.47
946.00	38693.74
947.00	38738.99
948.00	38870.06
949.00	38902.82
950.00	39004.25
951.00	38898.92
952.00	38607.92
953.00	38369.96
954.00	38364.50
955.00	38640.68
956.00	38858.35
957.00	39139.22
958.00	39434.13
959.00	39724.35
960.00	39723.57
961.00	39631.51
962.00	39512.92
963.00	39785.21
964.00	40027.06
965.00	40318.85
966.00	40473.32
967.00	40599.71
968.00	40699.58
969.00	40468.64
970.00	40510.77
971.00	40682.41
972.00	40939.87
973.00	40954.69
974.00	40749.51
975.00	40801.78
976.00	40699.58
977.00	40743.27
978.00	40452.26
979.00	40400.77
980.00	40368.78
981.00	40699.58
982.00	40996.82
983.00	41074.06
984.00	41133.35
985.00	41067.04
986.00	41141.16
987.00	41074.84
988.00	41143.50
989.00	41080.30
990.00	41279.25
991.00	41219.95
992.00	41333.86
993.00	41269.11
994.00	41495.36
995.00	41755.94
996.00	41853.46
997.00	42142.91
998.00	42209.22
999.00	42426.11
1000.00	42518.17
1001.00	42792.01
1002.00	42646.90
1003.00	42319.23
1004.00	42208.44
1005.00	42387.10
1006.00	42615.69
1007.00	42749.88
1008.00	42907.48
1009.00	42932.45
1010.00	42909.04
1011.00	42728.82
1012.00	42824.78
1013.00	42688.25
1014.00	42770.95
1015.00	42632.86
1016.00	42792.79
1017.00	43053.37
1018.00	43333.46
1019.00	43569.85
1020.00	43468.43
1021.00	43526.94
1022.00	43331.90
1023.00	43178.20
1024.00	43122.03
1025.00	43204.73
1026.00	43458.29
1027.00	43686.88
1028.00	43871.00
1029.00	43924.05
1030.00	43862.42
1031.00	43949.02
1032.00	44190.87
1033.00	44472.52
1034.00	44540.39
1035.00	44432.73
1036.00	44363.29
1037.00	44377.34
1038.00	44449.11
1039.00	44421.03
1040.00	44531.03
1041.00	44676.93
1042.00	44755.72
1043.00	44772.11
1044.00	44834.52
1045.00	44984.32
1046.00	44967.93
1047.00	44967.93
1048.00	44818.14
1049.00	44981.98
1050.00	45069.36
1051.00	45342.42
1052.00	45340.86
1053.00	45475.05
1054.00	45336.18
1055.00	45344.76
1056.00	45370.50
1057.00	45691.16
1058.00	45801.16
1059.00	45851.09
1060.00	45855.78
1061.00	45755.13
1062.00	45670.09
1063.00	45634.20
1064.00	45781.66
1065.00	45854.22
1066.00	45936.13
1067.00	46092.17
1068.00	46209.98
1069.00	46149.12
1070.00	45978.26
1071.00	45963.44
1072.00	46099.19
1073.00	46142.88
1074.00	46373.81
1075.00	46346.51
1076.00	46475.24
1077.00	46341.83
1078.00	46438.57
1079.00	46491.62
1080.00	46369.91
1081.00	46298.92
1082.00	46325.44
1083.00	46518.15
1084.00	46649.22
1085.00	46580.56
1086.00	46567.30
1087.00	46593.04
1088.00	46723.33
1089.00	46959.73
1090.00	47076.76
1091.00	47240.59
1092.00	47132.93
1093.00	47177.40
1094.00	47387.27
1095.00	47648.63
1096.00	47740.69
1097.00	47652.53
1098.00	47519.90
1099.00	47611.18
1100.00	47665.01
1101.00	47778.14
1102.00	47723.52
1103.00	47654.09
1104.00	47699.34
1105.00	47666.57
1106.00	47697.78
1107.00	47741.47
1108.00	47694.66
1109.00	47851.47
1110.00	47909.21
1111.00	47934.95
1112.00	47760.19
1113.00	47565.93
1114.00	47713.38
1115.00	47729.76
1116.00	47901.40
1117.00	47784.38
1118.00	48005.95
1119.00	48023.11
1120.00	48273.55
1121.00	48157.30
1122.00	48266.53
1123.00	48076.94
1124.00	48134.68
1125.00	47942.75
1126.00	47970.84
1127.00	47955.24
1128.00	47914.67
1129.00	47835.09
1130.00	47884.24
1131.00	47974.74
1132.00	48090.99
1133.00	48137.80
1134.00	48226.74
1135.00	48276.67
1136.00	48327.38
1137.00	48391.36
1138.00	48459.23
1139.00	48665.98
1140.00	48629.31
1141.00	48629.31
1142.00	48624.63
1143.00	48744.00
1144.00	48804.85
1145.00	48562.22
1146.00	48563.78
1147.00	48442.07
1148.00	48596.54
1149.00	48510.72
1150.00	48678.46
1151.00	48734.63
1152.00	48993.65
1153.00	49045.15
1154.00	48883.65
1155.00	48687.82
1156.00	48509.94
1157.00	48537.25
1158.00	48463.13
1159.00	48641.01
1160.00	48889.11
1161.00	49175.44
1162.00	49403.25
1163.00	49388.42
1164.00	49354.88
1165.00	49261.26
1166.00	49180.90
1167.00	49064.65
1168.00	48979.61
1169.00	48855.56
1170.00	48956.21
1171.00	48909.39
1172.00	48975.71
1173.00	48729.95
1174.00	48761.94
1175.00	48759.60
1176.00	48925.00
1177.00	48804.07
1178.00	48852.44
1179.00	48907.05
1180.00	49247.21
1181.00	49404.81
1182.00	49613.90
1183.00	49578.01
1184.00	49606.09
1185.00	49499.99
1186.00	49437.58
1187.00	49270.62
1188.00	49270.62
1189.00	49273.74
1190.00	49441.48
1191.00	49521.05
1192.00	49376.72
1193.00	49343.17
1194.00	49366.58
1195.00	49582.69
1196.00	49639.64
1197.00	49537.44
1198.00	49475.80
1199.00	49466.44
1200.00	49535.88
1201.00	49421.19
1202.00	49367.36
1203.00	49410.27
1204.00	49585.81
1205.00	49755.89
1206.00	49799.58
1207.00	49943.13
1208.00	49901.78
1209.00	49823.76
1210.00	49578.79
1211.00	49528.86
1212.00	49581.91
1213.00	49605.31
1214.00	49371.26
1215.00	49410.27
1216.00	49418.85
1217.00	49738.72
1218.00	49630.28
1219.00	49773.83
1220.00	49734.04
1221.00	49579.57
1222.00	49617.80
1223.00	49613.90
1224.00	49777.73
1225.00	49708.30
1226.00	49721.56
1227.00	49776.95
1228.00	49774.61
1229.00	49745.75
1230.00	49837.81
1231.00	49994.62
1232.00	50136.62
1233.00	50181.87
1234.00	50133.49
1235.00	50074.98
1236.00	50089.02
1237.00	50202.93
1238.00	50323.08
1239.00	50445.57
1240.00	50544.65
1241.00	50656.21
1242.00	50667.92
1243.00	50656.21
1244.00	50578.98
1245.00	50526.70
1246.00	50504.08
1247.00	50634.37
1248.00	50736.57
1249.00	50822.39
1250.00	50758.42
1251.00	50667.14
1252.00	50512.66
1253.00	50473.65
1254.00	50378.47
1255.00	50321.52
1256.00	50229.46
1257.00	50295.77
1258.00	50394.85
1259.00	50401.88
1260.00	50433.08
1261.00	50541.53
1262.00	50770.90
1263.00	51121.98
1264.00	51317.81
1265.00	51486.32
1266.00	51314.69
1267.00	51357.60
1268.00	51470.72
1269.00	51519.87
1270.00	51404.41
1271.00	51204.68
1272.00	51149.29
1273.00	51089.99
1274.00	51040.84
1275.00	51045.52
1276.00	51043.96
1277.00	51126.66
1278.00	51069.71
1279.00	51168.79
1280.00	51178.15
1281.00	51355.25
1282.00	51440.29
1283.00	51491.79
1284.00	51505.83
1285.00	51510.51
1286.00	51603.35
1287.00	51633.78
1288.00	51635.34
1289.00	51700.09
1290.00	51769.53
1291.00	51927.91
1292.00	51924.78
1293.00	51931.03
1294.00	51863.93
1295.00	51777.33
1296.00	51778.11
1297.00	51703.21
1298.00	51733.64
1299.00	51676.69
1300.00	51711.02
1301.00	51550.30
1302.00	51512.85
1303.00	51494.13
1304.00	51677.47
1305.00	51860.03
1306.00	51875.63
1307.00	51890.46
1308.00	51781.23
1309.00	51770.31
1310.00	51783.57
1311.00	51783.57
1312.00	51953.65
1313.00	51903.72
1314.00	52136.99
1315.00	52177.56
1316.00	52425.66
1317.00	52411.62
1318.00	52316.43
1319.00	52197.07
1320.00	52323.46
1321.00	52501.34
1322.00	52503.68
1323.00	52354.66
1324.00	52285.23
1325.00	52280.55
1326.00	52456.09
1327.00	52714.33
1328.00	52981.15
1329.00	53025.62
1330.00	52984.27
1331.00	52970.22
1332.00	52817.31
1333.00	52520.06
1334.00	52349.20
1335.00	52137.77
1336.00	52243.88
1337.00	52202.53
1338.00	52282.11
1339.00	52232.96
1340.00	52167.42
1341.00	52300.05
1342.00	52386.65
1343.00	52579.35
1344.00	52633.19
1345.00	52581.70
1346.00	52499.78
1347.00	52564.53
1348.00	52589.50
1349.00	52695.60
1350.00	52445.16
1351.00	52467.01
1352.00	52380.41
1353.00	52569.99
1354.00	52619.14
1355.00	52725.25
1356.00	52736.17
1357.00	52857.88
1358.00	52815.75
1359.00	52850.86
1360.00	52829.79
1361.00	52875.82
1362.00	52794.68
1363.00	52641.77
1364.00	52563.75
1365.00	52694.04
1366.00	52708.08
1367.00	52665.17
1368.00	52571.55
1369.00	52834.47
1370.00	53004.55
1371.00	53081.01
1372.00	53008.45
1373.00	53090.37
1374.00	53189.45
1375.00	53067.75
1376.00	52995.19
1377.00	52786.10
1378.00	52856.32
1379.00	52797.02
1380.00	52945.26
1381.00	52823.55
1382.00	52815.75
1383.00	52648.79
1384.00	52510.70
1385.00	52306.29
1386.00	52174.44
1387.00	52152.60
1388.00	52241.54
1389.00	52381.97
1390.00	52515.38
1391.00	52545.03
1392.00	52531.76
1393.00	52520.06
1394.00	52637.09
1395.00	52670.64
1396.00	52752.55
1397.00	52644.89
1398.00	52625.39
1399.00	52486.51
1400.00	52390.55
1401.00	52275.08
1402.00	52361.68
1403.00	52528.64
1404.00	52663.61
1405.00	52701.06
1406.00	52620.70
1407.00	52648.79
1408.00	52612.90
1409.00	52619.92
1410.00	52687.02
1411.00	52841.49
1412.00	53006.11
1413.00	53076.33
1414.00	53008.45
1415.00	52995.19
1416.00	52951.50
1417.00	52959.30
1418.00	52895.33
1419.00	52903.91
1420.00	53004.55
1421.00	53011.57
1422.00	53052.92
1423.00	52861.78
1424.00	52963.20
1425.00	52984.27
1426.00	53096.61
1427.00	53068.53
1428.00	52926.53
1429.00	52715.11
1430.00	52603.54
1431.00	52592.62
1432.00	52746.31
1433.00	52683.12
1434.00	52470.13
1435.00	52278.21
1436.00	52160.40
1437.00	52198.63
1438.00	52247.78
1439.00	52373.39
1440.00	52383.53
1441.00	52343.74
1442.00	52250.90
1443.00	52200.97
1444.00	52210.33
1445.00	52194.73
1446.00	52332.82
1447.00	52398.35
1448.00	52548.15
1449.00	52592.62
1450.00	52772.84
1451.00	52832.91
1452.00	52853.98
1453.00	52804.05
1454.00	52676.88
1455.00	52526.30
1456.00	52488.07
1457.00	52439.70
1458.00	52521.62
1459.00	52404.59
1460.00	52400.69
1461.00	52291.47
1462.00	52285.23
1463.00	52286.79
1464.00	52267.28
1465.00	52248.56
1466.00	52195.51
1467.00	52239.20
1468.00	52277.43
1469.00	52339.84
1470.00	52329.70
1471.00	52296.15
1472.00	52268.06
1473.00	52348.42
1474.00	52358.56
1475.00	52374.95
1476.00	52363.25
1477.00	52385.09
1478.00	52407.72
1479.00	52332.04
1480.00	52151.04
1481.00	52127.63
1482.00	52085.50
1483.00	52081.60
1484.00	52007.48
1485.00	51919.32
1486.00	51939.61
1487.00	51814.00
1488.00	51936.49
1489.00	51906.84
1490.00	51980.18
1491.00	52047.27
1492.00	52096.42
1493.00	52053.51
1494.00	51783.57
1495.00	51781.23
1496.00	51815.56
1497.00	51902.16
1498.00	51914.64
1499.00	51856.13
1500.00	52062.88
1501.00	52048.83
1502.00	52218.13
1503.00	52062.10
1504.00	52036.35
1505.00	51991.88
1506.00	51849.89
1507.00	51752.37
1508.00	51652.50
1509.00	51761.73
1510.00	51752.37
1511.00	51733.64
1512.00	51761.73
1513.00	51905.28
1514.00	51852.23
1515.00	51759.39
1516.00	51560.44
1517.00	51652.50
1518.00	51685.27
1519.00	51722.72
1520.00	51697.75
1521.00	51641.58
1522.00	51642.36
1523.00	51681.37
1524.00	51711.80
1525.00	51723.50
1526.00	51561.22
1527.00	51419.23
1528.00	51468.38
1529.00	51508.17
1530.00	51501.93
1531.00	51412.21
1532.00	51408.31
1533.00	51472.28
1534.00	51466.04
1535.00	51489.45
1536.00	51664.99
1537.00	51860.03
1538.00	52034.01
1539.00	51960.67
1540.00	51842.87
1541.00	51718.04
1542.00	51735.20
1543.00	51752.37
1544.00	51667.33
1545.00	51604.91
1546.00	51597.11
1547.00	51462.92
1548.00	51423.91
1549.00	51462.92
1550.00	51579.17
1551.00	51553.42
1552.00	51381.78
1553.00	51398.94
1554.00	51384.12
1555.00	51410.65
1556.00	51546.40
1557.00	51622.08
1558.00	51661.86
1559.00	51523.77
1560.00	51412.21
1561.00	51187.52
1562.00	51018.22
1563.00	50894.17
1564.00	50906.65
1565.00	50800.55
1566.00	50747.50
1567.00	50687.42
1568.00	50659.34
1569.00	50735.01
1570.00	50724.09
1571.00	50710.83
1572.00	50619.55
1573.00	50622.67
1574.00	50747.50
1575.00	50716.29
1576.00	50614.86
1577.00	50458.05
1578.00	50502.52
1579.00	50680.40
1580.00	50887.93
1581.00	50853.60
1582.00	50910.55
1583.00	50884.03
1584.00	50933.18
1585.00	50899.63
1586.00	50726.43
1587.00	50706.15
1588.00	50866.08
1589.00	51086.09
1590.00	51168.01
1591.00	50940.98
1592.00	50808.35
1593.00	50593.80
1594.00	50474.43
1595.00	50473.65
1596.00	50610.18
1597.00	50670.26
1598.00	50695.22
1599.00	50596.92
1600.00	50592.24
1601.00	50546.99
1602.00	50603.16
1603.00	50642.17
1604.00	50631.25
1605.00	50606.28
1606.00	50483.01
1607.00	50248.18
1608.00	50099.17
1609.00	50090.58
1610.00	50153.78
1611.00	50067.18
1612.00	50106.19
1613.00	50138.96
1614.00	50190.45
1615.00	50105.41
1616.00	50066.40
1617.00	50380.03
1618.00	50557.13
1619.00	50899.63
1620.00	50862.96
1621.00	50969.85
1622.00	50861.40
1623.00	50675.72
1624.00	50442.45
1625.00	50319.18
1626.00	50323.08
1627.00	50211.51
1628.00	50012.57
1629.00	50005.55
1630.00	50128.81
1631.00	50372.23
1632.00	50408.90
1633.00	50492.38
1634.00	50454.93
1635.00	50500.18
1636.00	50392.51
1637.00	50198.25
1638.00	49962.64
1639.00	49915.83
1640.00	50009.45
1641.00	50045.33
1642.00	49993.84
1643.00	49918.95
1644.00	49811.28
1645.00	49801.92
1646.00	49872.14
1647.00	49914.26
1648.00	50013.35
1649.00	49886.18
1650.00	49931.43
1651.00	49629.50
1652.00	49726.24
1653.00	49545.24
1654.00	49561.62
1655.00	49381.40
1656.00	49316.65
1657.00	49401.69
1658.00	49432.89
1659.00	49572.55
1660.00	49492.19
1661.00	49360.34
1662.00	49359.56
1663.00	49375.94
1664.00	49645.10
1665.00	49684.11
1666.00	49702.06
1667.00	49515.59
1668.00	49496.09
1669.00	49395.45
1670.00	49283.88
1671.00	49193.38
1672.00	49184.80
1673.00	49379.84
1674.00	49533.54
1675.00	49542.90
1676.00	49543.68
1677.00	49342.39
1678.00	49372.04
1679.00	49251.89
1680.00	49146.57
1681.00	49104.44
1682.00	48904.71
1683.00	48907.83
1684.00	48751.80
1685.00	48918.76
1686.00	49006.92
1687.00	49264.38
1688.00	49174.66
1689.00	49098.20
1690.00	48798.61
1691.00	48715.13
1692.00	48619.17
1693.00	48429.58
1694.00	48172.91
1695.00	48094.11
1696.00	48204.11
1697.00	48389.80
1698.00	48519.31
1699.00	48767.40
1700.00	49013.94
1701.00	49077.13
1702.00	48913.30
1703.00	48868.05
1704.00	48802.51
1705.00	48864.92
1706.00	48719.81
1707.00	48626.97
1708.00	48536.47
1709.00	48562.22
1710.00	48410.86
1711.00	48264.97
1712.00	47994.25
1713.00	48030.91
1714.00	47990.34
1715.00	48038.72
1716.00	48082.41
1717.00	48141.70
1718.00	48084.75
1719.00	48063.68
1720.00	48101.91
1721.00	48045.74
1722.00	47998.93
1723.00	47810.90
1724.00	47739.13
1725.00	47640.04
1726.00	47544.86
1727.00	47539.40
1728.00	47283.50
1729.00	47311.59
1730.00	47305.35
1731.00	47317.05
1732.00	47064.27
1733.00	46683.55
1734.00	46594.60
1735.00	46650.78
1736.00	46909.80
1737.00	46865.33
1738.00	46795.89
1739.00	46529.07
1740.00	46272.39
1741.00	46108.55
1742.00	46056.28
1743.00	46188.91
1744.00	45999.33
1745.00	45796.48
1746.00	45597.54
1747.00	45573.35
1748.00	45676.33
1749.00	45498.45
1750.00	45532.78
1751.00	45329.94
1752.00	45269.08
1753.00	44938.29
1754.00	44753.38
1755.00	44695.65
1756.00	44829.06
1757.00	44823.60
1758.00	44737.78
1759.00	44562.24
1760.00	44501.39
1761.00	44383.58
1762.00	44470.18
1763.00	44375.78
1764.00	44185.41
1765.00	44000.51
1766.00	43950.58
1767.00	44082.43
1768.00	43996.61
1769.00	44024.70
1770.00	44162.79
1771.00	44151.09
1772.00	44141.72
1773.00	43986.47
1774.00	43980.23
1775.00	43655.67
1776.00	43556.59
1777.00	43420.84
1778.00	43558.93
1779.00	43548.79
1780.00	43445.02
1781.00	43301.47
1782.00	43231.26
1783.00	42982.38
1784.00	42800.60
1785.00	42500.23
1786.00	42650.80
1787.00	42748.32
1788.00	42471.36
1789.00	42209.22
1790.00	41910.41
1791.00	41907.29
1792.00	41651.39
1793.00	41475.85
1794.00	41227.76
1795.00	41235.56
1796.00	41007.75
1797.00	41056.90
1798.00	40886.04
1799.00	40911.78
1800.00	40667.59
1801.00	40466.30
1802.00	40094.94
1803.00	39940.46
1804.00	39775.84
1805.00	39604.99
1806.00	39485.62
1807.00	39369.37
1808.00	39396.68
1809.00	39292.91
1810.00	39281.99
1811.00	39178.23
1812.00	39012.83
1813.00	38867.72
1814.00	38736.65
1815.00	38664.87
1816.00	38436.28
1817.00	38404.29
1818.00	38277.12
1819.00	38068.81
1820.00	37865.19
1821.00	37693.55
1822.00	37716.17
1823.00	37502.40
1824.00	37386.16
1825.00	37095.93
1826.00	36924.29
1827.00	36677.76
1828.00	36542.78
1829.00	36480.37
1830.00	36042.69
1831.00	36142.55
1832.00	36034.11
1833.00	36223.69
1834.00	35842.18
1835.00	35678.35
1836.00	35343.65
1837.00	35225.06
1838.00	34870.08
1839.00	34782.70
1840.00	34549.43
1841.00	34356.72
1842.00	34172.60
1843.00	33967.41
1844.00	33700.59
1845.00	33458.74
1846.00	33129.50
1847.00	32964.10
1848.00	32801.05
1849.00	32648.13
1850.00	32510.04
1851.00	32180.03
1852.00	31926.47
1853.00	31807.88
1854.00	31873.42
1855.00	31854.69
1856.00	31575.39
1857.00	31403.75
1858.00	31268.00
1859.00	31152.53
1860.00	30810.03
1861.00	30714.85
1862.00	30614.99
1863.00	30650.88
1864.00	30422.28
1865.00	30411.36
1866.00	30251.42
1867.00	30181.21
1868.00	29810.62
1869.00	29387.77
1870.00	29042.15
1871.00	28850.22
1872.00	28721.49
1873.00	28518.65
1874.00	28373.53
1875.00	28341.55
1876.00	28182.39
1877.00	27980.32
1878.00	27732.23
1879.00	27422.50
1880.00	27202.49
1881.00	27004.32
1882.00	27112.77
1883.00	26830.34
1884.00	26739.84
1885.00	26421.53
1886.00	26345.07
1887.00	26155.49
1888.00	25869.16
1889.00	25694.40
1890.00	25628.09
1891.00	25497.80
1892.00	25322.26
1893.00	24954.01
1894.00	24918.12
1895.00	24753.51
1896.00	24712.16
1897.00	24462.50
1898.00	24320.51
1899.00	24227.67
1900.00	24256.53
1901.00	24286.96
1902.00	24150.43
1903.00	23967.09
1904.00	23804.03
1905.00	23677.64
1906.00	23530.19
1907.00	23245.42
1908.00	23166.62
1909.00	22977.04
1910.00	22849.09
1911.00	22492.55
1912.00	22238.99
1913.00	22102.46
1914.00	21983.87
1915.00	21962.03
1916.00	21703.79
1917.00	21614.07
1918.00	21311.36
1919.00	21316.82
1920.00	21201.35
1921.00	21002.41
1922.00	20875.24
1923.00	20500.75
1924.00	20413.37
1925.00	20076.34
1926.00	20024.06
1927.00	19807.95
1928.00	19811.07
1929.00	19717.45
1930.00	19671.42
1931.00	19450.63
1932.00	19316.44
1933.00	19290.70
1934.00	19157.28
1935.00	19204.88
1936.00	18981.74
1937.00	18914.65
1938.00	18620.52
1939.00	18479.31
1940.00	18403.63
1941.00	18282.70
1942.00	18278.02
1943.00	18130.57
1944.00	17951.91
1945.00	17760.77
1946.00	17651.54
1947.00	17467.42
1948.00	17315.28
1949.00	17171.73
1950.00	17203.72
1951.00	17132.72
1952.00	17064.07
1953.00	16981.37
1954.00	16939.24
1955.00	16802.71
1956.00	16652.13
1957.00	16472.69
1958.00	16283.89
1959.00	16184.80
1960.00	16042.81
1961.00	15988.20
1962.00	15879.75
1963.00	15761.17
1964.00	15680.81
1965.00	15433.49
1966.00	15442.07
1967.00	15314.13
1968.00	15316.47
1969.00	15147.95
1970.00	15004.39
1971.00	14803.89
1972.00	14749.28
1973.00	14784.38
1974.00	14813.25
1975.00	14683.74
1976.00	14444.23
1977.00	14318.62
1978.00	14219.53
1979.00	14114.99
1980.00	14010.45
1981.00	13826.32
1982.00	13788.10
1983.00	13703.84
1984.00	13802.14
1985.00	13750.65
1986.00	13724.90
1987.00	13513.47
1988.00	13408.93
1989.00	13207.64
1990.00	13114.02
1991.00	13043.03
1992.00	12955.65
1993.00	12872.95
1994.00	12723.15
1995.00	12681.02
1996.00	12585.06
1997.00	12560.88
1998.00	12515.62
1999.00	12436.05
2000.00	12358.81
2001.00	12228.52
2002.00	12296.39
2003.00	12220.72
2004.00	12083.41
2005.00	11907.09
2006.00	11736.23
2007.00	11768.21
2008.00	11640.26
2009.00	11656.65
2010.00	11533.38
2011.00	11479.55
2012.00	11432.74
2013.00	11419.47
2014.00	11331.31
2015.00	11225.21
2016.00	11139.39
2017.00	11147.19
2018.00	11135.49
2019.00	11068.39
2020.00	10983.35
2021.00	10918.60
2022.00	10888.95
2023.00	10839.80
2024.00	10718.09
2025.00	10680.64
2026.00	10621.35
2027.00	10523.83
2028.00	10337.37
2029.00	10284.31
2030.00	10270.27
2031.00	10328.00
2032.00	10240.62
2033.00	10232.04
2034.00	10120.48
2035.00	10093.95
2036.00	10037.78
2037.00	10065.86
2038.00	9994.87
2039.00	9901.25
2040.00	9750.67
2041.00	9752.23
2042.00	9728.05
2043.00	9714.78
2044.00	9696.84
2045.00	9632.08
2046.00	9583.71
2047.00	9479.17
>>>>>End Processed Spectral Data<<<<<
