SpectraSuite Data File
++++++++++++++++++++++++++++++++++++
Date: Thu Nov 16 14:10:53 EST 2017
User: cheriyan
Dark Spectrum Present: No
Reference Spectrum Present: No
Number of Sampled Component Spectra: 1
Spectrometers: USB2+H05261
Integration Time (usec): 100000 (USB2+H05261)
Spectra Averaged: 1 (USB2+H05261)
Boxcar Smoothing: 1 (USB2+H05261)
Correct for Electrical Dark: No (USB2+H05261)
Strobe/Lamp Enabled: No (USB2+H05261)
Correct for Detector Non-linearity: No (USB2+H05261)
Correct for Stray Light: No (USB2+H05261)
Number of Pixels in Processed Spectrum: 2048
>>>>>Begin Processed Spectral Data<<<<<
0.00	327.68
1.00	327.68
2.00	308.95
3.00	283.20
4.00	279.30
5.00	280.08
6.00	259.02
7.00	227.03
8.00	210.65
9.00	227.81
10.00	238.73
11.00	262.92
12.00	241.86
13.00	230.93
14.00	219.23
15.00	241.08
16.00	260.58
17.00	262.14
18.00	268.38
19.00	278.52
20.00	300.37
21.00	307.39
22.00	315.19
23.00	329.24
24.00	429.10
25.00	519.60
26.00	605.42
27.00	608.54
28.00	619.46
29.00	630.38
30.00	658.47
31.00	646.77
32.00	649.11
33.00	656.13
34.00	701.38
35.00	697.48
36.00	716.98
37.00	717.76
38.00	732.59
39.00	754.43
40.00	771.60
41.00	770.82
42.00	779.40
43.00	771.60
44.00	791.10
45.00	764.57
46.00	753.65
47.00	748.19
48.00	717.76
49.00	729.47
50.00	738.83
51.00	785.64
52.00	788.76
53.00	804.36
54.00	790.32
55.00	793.44
56.00	777.06
57.00	818.41
58.00	819.19
59.00	826.21
60.00	744.29
61.00	742.73
62.00	724.79
63.00	748.19
64.00	755.99
65.00	796.56
66.00	853.52
67.00	856.64
68.00	834.01
69.00	802.02
70.00	809.05
71.00	824.65
72.00	824.65
73.00	809.05
74.00	799.68
75.00	811.39
76.00	821.53
77.00	853.52
78.00	850.39
79.00	844.93
80.00	808.26
81.00	793.44
82.00	795.78
83.00	804.36
84.00	836.35
85.00	861.32
86.00	857.42
87.00	835.57
88.00	869.90
89.00	883.94
90.00	893.30
91.00	880.04
92.00	902.67
93.00	918.27
94.00	895.64
95.00	870.68
96.00	883.16
97.00	888.62
98.00	911.25
99.00	880.82
100.00	916.71
101.00	907.35
102.00	951.82
103.00	924.51
104.00	915.15
105.00	891.74
106.00	900.33
107.00	933.87
108.00	955.72
109.00	940.12
110.00	946.36
111.00	937.77
112.00	974.44
113.00	979.90
114.00	995.51
115.00	989.27
116.00	1005.65
117.00	1027.50
118.00	1031.40
119.00	1036.86
120.00	1005.65
121.00	1008.77
122.00	999.41
123.00	1035.30
124.00	1064.16
125.00	1050.90
126.00	1018.91
127.00	990.83
128.00	1012.67
129.00	1061.04
130.00	1086.79
131.00	1096.93
132.00	1107.85
133.00	1105.51
134.00	1114.10
135.00	1075.09
136.00	1068.06
137.00	1066.50
138.00	1093.03
139.00	1079.77
140.00	1085.23
141.00	1070.40
142.00	1118.00
143.00	1107.07
144.00	1104.73
145.00	1071.19
146.00	1064.16
147.00	1105.51
148.00	1139.84
149.00	1210.06
150.00	1249.85
151.00	1249.07
152.00	1223.32
153.00	1205.38
154.00	1219.42
155.00	1260.77
156.00	1254.53
157.00	1261.55
158.00	1238.14
159.00	1235.02
160.00	1222.54
161.00	1201.48
162.00	1229.56
163.00	1272.47
164.00	1284.17
165.00	1267.01
166.00	1252.19
167.00	1274.03
168.00	1277.93
169.00	1306.02
170.00	1318.50
171.00	1323.18
172.00	1284.17
173.00	1293.54
174.00	1302.90
175.00	1337.23
176.00	1361.41
177.00	1389.50
178.00	1422.27
179.00	1399.64
180.00	1390.28
181.00	1369.99
182.00	1403.54
183.00	1437.09
184.00	1444.11
185.00	1409.78
186.00	1388.72
187.00	1437.09
188.00	1446.45
189.00	1452.69
190.00	1387.94
191.00	1429.29
192.00	1461.27
193.00	1498.72
194.00	1487.02
195.00	1472.20
196.00	1499.50
197.00	1489.36
198.00	1520.57
199.00	1472.20
200.00	1497.16
201.00	1507.30
202.00	1547.87
203.00	1529.15
204.00	1525.25
205.00	1521.35
206.00	1547.09
207.00	1586.88
208.00	1626.67
209.00	1640.72
210.00	1645.40
211.00	1621.21
212.00	1630.57
213.00	1613.41
214.00	1632.13
215.00	1653.20
216.00	1643.06
217.00	1643.84
218.00	1669.58
219.00	1709.37
220.00	1740.58
221.00	1722.63
222.00	1694.55
223.00	1710.93
224.00	1722.63
225.00	1731.22
226.00	1712.49
227.00	1725.76
228.00	1728.88
229.00	1755.40
230.00	1742.92
231.00	1782.71
232.00	1783.49
233.00	1813.92
234.00	1845.90
235.00	1848.24
236.00	1856.04
237.00	1852.92
238.00	1873.99
239.00	1890.37
240.00	1859.95
241.00	1885.69
242.00	1908.32
243.00	1941.86
244.00	1966.83
245.00	1951.23
246.00	1944.99
247.00	1930.94
248.00	1952.79
249.00	1980.09
250.00	1987.11
251.00	1976.97
252.00	2016.76
253.00	2047.97
254.00	2105.70
255.00	2104.92
256.00	2144.71
257.00	2130.67
258.00	2144.71
259.00	2138.47
260.00	2136.91
261.00	2188.40
262.00	2188.40
263.00	2231.31
264.00	2203.22
265.00	2186.06
266.00	2177.48
267.00	2225.07
268.00	2263.30
269.00	2250.82
270.00	2188.40
271.00	2246.13
272.00	2309.33
273.00	2380.32
274.00	2374.86
275.00	2394.37
276.00	2385.79
277.00	2363.94
278.00	2316.35
279.00	2314.01
280.00	2338.98
281.00	2404.51
282.00	2402.95
283.00	2431.82
284.00	2427.92
285.00	2455.22
286.00	2424.01
287.00	2427.14
288.00	2473.95
289.00	2540.26
290.00	2569.91
291.00	2588.63
292.00	2544.16
293.00	2559.77
294.00	2583.17
295.00	2579.27
296.00	2556.65
297.00	2535.58
298.00	2580.83
299.00	2612.04
300.00	2586.29
301.00	2567.57
302.00	2600.34
303.00	2637.78
304.00	2656.51
305.00	2637.00
306.00	2622.96
307.00	2615.94
308.00	2603.46
309.00	2644.03
310.00	2693.18
311.00	2711.90
312.00	2658.07
313.00	2665.87
314.00	2693.18
315.00	2752.47
316.00	2750.91
317.00	2774.32
318.00	2758.71
319.00	2788.36
320.00	2771.19
321.00	2807.08
322.00	2778.22
323.00	2803.18
324.00	2789.92
325.00	2822.69
326.00	2837.51
327.00	2886.66
328.00	2910.07
329.00	2948.29
330.00	2935.03
331.00	2925.67
332.00	2899.14
333.00	2927.23
334.00	2923.33
335.00	2941.27
336.00	2974.04
337.00	3021.63
338.00	3062.98
339.00	3027.87
340.00	3038.02
341.00	3060.64
342.00	3095.75
343.00	3126.96
344.00	3121.49
345.00	3133.20
346.00	3129.30
347.00	3149.58
348.00	3140.22
349.00	3169.09
350.00	3151.14
351.00	3218.24
352.00	3256.47
353.00	3318.10
354.00	3313.42
355.00	3285.33
356.00	3284.55
357.00	3275.19
358.00	3255.69
359.00	3243.20
360.00	3331.36
361.00	3414.06
362.00	3453.07
363.00	3470.23
364.00	3428.10
365.00	3420.30
366.00	3385.98
367.00	3412.50
368.00	3438.25
369.00	3451.51
370.00	3474.92
371.00	3482.72
372.00	3492.08
373.00	3531.09
374.00	3553.71
375.00	3611.45
376.00	3626.27
377.00	3615.35
378.00	3574.78
379.00	3606.77
380.00	3682.44
381.00	3742.52
382.00	3766.70
383.00	3799.47
384.00	3788.55
385.00	3792.45
386.00	3794.79
387.00	3837.70
388.00	3860.32
389.00	3868.91
390.00	3922.74
391.00	3958.63
392.00	4031.18
393.00	4033.52
394.00	4041.33
395.00	3999.20
396.00	4021.04
397.00	4091.26
398.00	4149.77
399.00	4177.08
400.00	4178.64
401.00	4168.49
402.00	4188.78
403.00	4244.17
404.00	4248.07
405.00	4279.28
406.00	4287.08
407.00	4312.05
408.00	4227.01
409.00	4219.21
410.00	4269.92
411.00	4392.41
412.00	4370.56
413.00	4362.76
414.00	4371.34
415.00	4354.96
416.00	4400.21
417.00	4415.81
418.00	4471.20
419.00	4455.60
420.00	4467.30
421.00	4504.75
422.00	4488.37
423.00	4508.65
424.00	4514.11
425.00	4572.63
426.00	4507.87
427.00	4483.69
428.00	4510.21
429.00	4571.07
430.00	4564.82
431.00	4543.76
432.00	4507.09
433.00	4553.90
434.00	4579.65
435.00	4645.96
436.00	4638.94
437.00	4688.87
438.00	4738.80
439.00	4788.74
440.00	4816.04
441.00	4816.04
442.00	4861.29
443.00	4830.87
444.00	4837.11
445.00	4809.80
446.00	4848.81
447.00	4851.93
448.00	4832.43
449.00	4831.65
450.00	4827.74
451.00	4922.15
452.00	4947.11
453.00	4989.24
454.00	4978.32
455.00	5000.16
456.00	5041.51
457.00	5110.17
458.00	5170.24
459.00	5185.07
460.00	5156.98
461.00	5112.51
462.00	5125.77
463.00	5180.39
464.00	5242.80
465.00	5259.96
466.00	5298.19
467.00	5309.90
468.00	5330.18
469.00	5351.24
470.00	5422.24
471.00	5494.80
472.00	5515.08
473.00	5463.59
474.00	5488.56
475.00	5505.72
476.00	5589.20
477.00	5586.08
478.00	5587.64
479.00	5604.80
480.00	5602.46
481.00	5653.95
482.00	5655.51
483.00	5673.46
484.00	5714.03
485.00	5755.38
486.00	5820.91
487.00	5817.01
488.00	5866.94
489.00	5901.27
490.00	5920.00
491.00	5920.00
492.00	5973.83
493.00	5980.07
494.00	6014.40
495.00	6025.32
496.00	6065.89
497.00	6118.16
498.00	6154.83
499.00	6147.81
500.00	6119.72
501.00	6122.84
502.00	6149.37
503.00	6124.40
504.00	6076.03
505.00	6080.71
506.00	6160.29
507.00	6205.54
508.00	6255.47
509.00	6239.87
510.00	6281.22
511.00	6335.83
512.00	6351.43
513.00	6399.02
514.00	6427.11
515.00	6551.16
516.00	6585.49
517.00	6588.61
518.00	6561.30
519.00	6591.73
520.00	6718.12
521.00	6730.60
522.00	6722.02
523.00	6672.09
524.00	6627.62
525.00	6676.77
526.00	6626.06
527.00	6750.89
528.00	6729.82
529.00	6743.08
530.00	6749.32
531.00	6770.39
532.00	6805.50
533.00	6794.58
534.00	6828.90
535.00	6884.30
536.00	6878.83
537.00	6843.73
538.00	6867.13
539.00	6954.51
540.00	7033.31
541.00	6995.86
542.00	6957.63
543.00	6989.62
544.00	7070.76
545.00	7153.46
546.00	7109.77
547.00	7198.71
548.00	7214.31
549.00	7328.22
550.00	7373.47
551.00	7410.14
552.00	7371.13
553.00	7312.61
554.00	7301.69
555.00	7353.96
556.00	7428.08
557.00	7513.12
558.00	7578.65
559.00	7577.09
560.00	7642.63
561.00	7711.29
562.00	7785.40
563.00	7751.07
564.00	7769.80
565.00	7829.87
566.00	7951.58
567.00	7982.79
568.00	8043.64
569.00	8050.66
570.00	8154.43
571.00	8251.95
572.00	8305.00
573.00	8288.62
574.00	8204.36
575.00	8209.82
576.00	8264.43
577.00	8365.07
578.00	8499.27
579.00	8555.44
580.00	8597.57
581.00	8578.84
582.00	8661.54
583.00	8723.18
584.00	8755.94
585.00	8773.89
586.00	8816.80
587.00	8857.37
588.00	8870.63
589.00	8984.54
590.00	9161.64
591.00	9257.60
592.00	9352.00
593.00	9405.05
594.00	9453.42
595.00	9456.54
596.00	9593.08
597.00	9774.08
598.00	9907.49
599.00	9884.86
600.00	9898.13
601.00	9906.71
602.00	10033.88
603.00	10140.76
604.00	10214.88
605.00	10342.05
606.00	10362.33
607.00	10399.00
608.00	10333.47
609.00	10454.39
610.00	10626.81
611.00	10756.32
612.00	10826.54
613.00	10850.72
614.00	10931.08
615.00	11015.34
616.00	11094.14
617.00	11112.86
618.00	11317.27
619.00	11418.69
620.00	11591.89
621.00	11540.40
622.00	11623.88
623.00	11701.12
624.00	11804.10
625.00	11857.93
626.00	11862.62
627.00	11976.52
628.00	12077.94
629.00	12297.17
630.00	12377.53
631.00	12478.18
632.00	12496.12
633.00	12691.16
634.00	12880.75
635.00	12980.61
636.00	13040.68
637.00	13084.37
638.00	13256.01
639.00	13283.32
640.00	13359.00
641.00	13421.41
642.00	13589.15
643.00	13727.24
644.00	13823.20
645.00	13794.34
646.00	13901.22
647.00	13926.97
648.00	14036.19
649.00	14146.98
650.00	14278.05
651.00	14422.38
652.00	14467.63
653.00	14563.59
654.00	14694.66
655.00	14790.63
656.00	14875.66
657.00	15013.76
658.00	15153.41
659.00	15391.36
660.00	15445.98
661.00	15484.98
662.00	15582.51
663.00	15704.99
664.00	15829.04
665.00	15723.72
666.00	15854.01
667.00	16054.51
668.00	16258.14
669.00	16240.98
670.00	16223.03
671.00	16277.65
672.00	16368.93
673.00	16528.86
674.00	16691.92
675.00	16753.55
676.00	16776.18
677.00	16847.18
678.00	16936.12
679.00	17141.30
680.00	17213.86
681.00	17468.98
682.00	17613.31
683.00	17859.07
684.00	17980.00
685.00	18043.19
686.00	18148.51
687.00	18258.52
688.00	18379.45
689.00	18428.60
690.00	18434.06
691.00	18508.18
692.00	18672.79
693.00	18932.59
694.00	18971.60
695.00	18987.99
696.00	18966.92
697.00	19161.97
698.00	19268.07
699.00	19389.78
700.00	19435.81
701.00	19491.20
702.00	19415.52
703.00	19502.12
704.00	19641.00
705.00	19920.30
706.00	20044.35
707.00	20124.71
708.00	20297.13
709.00	20445.36
710.00	20585.01
711.00	20659.13
712.00	20760.55
713.00	20876.02
714.00	20946.23
715.00	20969.64
716.00	20926.73
717.00	21089.01
718.00	21093.69
719.00	21224.76
720.00	21166.24
721.00	21284.05
722.00	21388.60
723.00	21539.17
724.00	21607.05
725.00	21746.70
726.00	21802.87
727.00	22215.58
728.00	22388.00
729.00	22574.47
730.00	22314.67
731.00	22352.12
732.00	22295.94
733.00	22320.91
734.00	22264.74
735.00	22348.22
736.00	22420.77
737.00	22552.62
738.00	22599.43
739.00	22762.49
740.00	22893.56
741.00	23178.33
742.00	23346.84
743.00	23318.76
744.00	23144.78
745.00	23222.80
746.00	23289.89
747.00	23617.57
748.00	23655.79
749.00	23763.46
750.00	23609.76
751.00	23583.24
752.00	23743.95
753.00	23768.92
754.00	23836.80
755.00	23812.61
756.00	24051.34
757.00	24141.07
758.00	24344.69
759.00	24467.96
760.00	24710.60
761.00	24927.49
762.00	24993.02
763.00	25109.27
764.00	25038.27
765.00	25087.42
766.00	25106.93
767.00	25316.01
768.00	25383.11
769.00	25552.41
770.00	25671.00
771.00	25853.56
772.00	25969.02
773.00	26021.30
774.00	26166.41
775.00	26211.66
776.00	26199.18
777.00	26187.47
778.00	25979.17
779.00	25916.75
780.00	25985.41
781.00	26391.10
782.00	26699.27
783.00	26958.29
784.00	26920.06
785.00	26845.94
786.00	26799.91
787.00	26954.39
788.00	27058.93
789.00	27314.05
790.00	27468.53
791.00	27718.18
792.00	27738.47
793.00	27624.56
794.00	27570.73
795.00	27452.14
796.00	27653.43
797.00	27741.59
798.00	27811.03
799.00	27876.56
800.00	27995.15
801.00	28225.30
802.00	28494.46
803.00	28390.70
804.00	28414.88
805.00	28284.59
806.00	28548.29
807.00	28546.73
808.00	28878.31
809.00	28822.14
810.00	29047.61
811.00	28947.75
812.00	29220.03
813.00	29237.97
814.00	29432.24
815.00	29556.29
816.00	29935.45
817.00	29995.53
818.00	29929.99
819.00	29788.00
820.00	29787.22
821.00	30038.44
822.00	30154.68
823.00	30238.94
824.00	30140.64
825.00	30038.44
826.00	30014.25
827.00	30111.77
828.00	30405.90
829.00	30716.41
830.00	30947.34
831.00	31003.52
832.00	31019.90
833.00	30975.43
834.00	31016.00
835.00	31080.75
836.00	31172.03
837.00	31130.69
838.00	31173.60
839.00	31243.03
840.00	31469.28
841.00	31471.62
842.00	31575.39
843.00	31722.84
844.00	31806.32
845.00	31890.58
846.00	31988.10
847.00	32043.49
848.00	32137.12
849.00	32116.83
850.00	32201.09
851.00	32311.88
852.00	32234.64
853.00	32326.70
854.00	32233.08
855.00	32352.45
856.00	32377.41
857.00	32467.91
858.00	32485.08
859.00	32671.54
860.00	32888.43
861.00	33104.54
862.00	33234.05
863.00	33256.67
864.00	33191.14
865.00	33152.13
866.00	33283.98
867.00	33596.83
868.00	33718.54
869.00	33974.44
870.00	33940.11
871.00	34208.49
872.00	34174.94
873.00	34144.52
874.00	33937.77
875.00	33802.02
876.00	33969.76
877.00	34073.52
878.00	34326.30
879.00	34373.89
880.00	34362.97
881.00	34377.79
882.00	34342.68
883.00	34543.97
884.00	34373.89
885.00	34373.11
886.00	34406.66
887.00	34540.85
888.00	34675.04
889.00	34731.99
890.00	34820.93
891.00	34850.58
892.00	35021.44
893.00	35023.00
894.00	35060.44
895.00	35040.94
896.00	35168.11
897.00	35301.52
898.00	35289.82
899.00	35625.29
900.00	35898.36
901.00	36251.78
902.00	36140.99
903.00	36206.53
904.00	36283.76
905.00	36543.56
906.00	36502.21
907.00	36417.18
908.00	36185.46
909.00	36385.19
910.00	36268.16
911.00	36343.84
912.00	36116.03
913.00	36207.31
914.00	36104.32
915.00	36275.96
916.00	36286.89
917.00	36657.47
918.00	36775.28
919.00	36904.01
920.00	36878.26
921.00	36941.46
922.00	37036.64
923.00	37039.76
924.00	36919.61
925.00	36929.75
926.00	37112.31
927.00	37288.63
928.00	37500.84
929.00	37610.85
930.00	37803.55
931.00	37760.64
932.00	37899.51
933.00	37955.69
934.00	37858.95
935.00	37723.19
936.00	37628.01
937.00	37615.53
938.00	37710.71
939.00	37685.75
940.00	37903.42
941.00	37683.41
942.00	37744.26
943.00	37791.07
944.00	38086.76
945.00	38126.55
946.00	38216.27
947.00	38126.55
948.00	38378.54
949.00	38465.14
950.00	38560.33
951.00	38447.98
952.00	38207.69
953.00	38160.87
954.00	38200.66
955.00	38485.43
956.00	38531.46
957.00	38744.45
958.00	38909.07
959.00	39214.12
960.00	39285.11
961.00	39185.25
962.00	39198.51
963.00	39370.15
964.00	39769.60
965.00	39952.16
966.00	40072.31
967.00	40118.34
968.00	40244.73
969.00	40212.74
970.00	40339.13
971.00	40308.71
972.00	40485.03
973.00	40382.04
974.00	40481.13
975.00	40452.26
976.00	40410.91
977.00	40192.46
978.00	39971.67
979.00	39860.88
980.00	39817.19
981.00	40062.17
982.00	40222.11
983.00	40500.63
984.00	40552.90
985.00	40784.62
986.00	40795.54
987.00	40635.60
988.00	40620.00
989.00	40708.94
990.00	41049.88
991.00	40861.07
992.00	40999.16
993.00	40863.41
994.00	41255.84
995.00	41313.58
996.00	41434.50
997.00	41587.42
998.00	41872.96
999.00	42117.94
1000.00	42202.98
1001.00	42086.73
1002.00	41940.06
1003.00	41853.46
1004.00	41992.33
1005.00	42181.13
1006.00	42324.69
1007.00	42422.21
1008.00	42666.41
1009.00	42549.38
1010.00	42565.76
1011.00	42170.99
1012.00	42224.82
1013.00	42044.60
1014.00	42170.99
1015.00	42113.26
1016.00	42239.65
1017.00	42532.22
1018.00	42904.36
1019.00	43070.54
1020.00	43054.15
1021.00	42968.33
1022.00	42851.31
1023.00	42603.21
1024.00	42603.21
1025.00	42715.56
1026.00	43257.00
1027.00	43438.78
1028.00	43713.41
1029.00	43611.98
1030.00	43590.14
1031.00	43642.41
1032.00	43750.85
1033.00	44055.12
1034.00	44012.21
1035.00	43973.99
1036.00	43917.81
1037.00	43942.78
1038.00	44016.89
1039.00	43877.24
1040.00	43963.06
1041.00	44221.30
1042.00	44406.20
1043.00	44554.44
1044.00	44568.48
1045.00	44697.99
1046.00	44644.16
1047.00	44392.94
1048.00	44338.33
1049.00	44416.35
1050.00	44829.84
1051.00	45032.69
1052.00	45155.96
1053.00	45208.23
1054.00	45191.06
1055.00	45265.96
1056.00	45191.84
1057.00	45089.64
1058.00	45228.51
1059.00	45274.54
1060.00	45553.07
1061.00	45312.77
1062.00	45198.09
1063.00	45218.37
1064.00	45372.06
1065.00	45513.28
1066.00	45515.62
1067.00	45641.23
1068.00	45767.62
1069.00	45659.95
1070.00	45689.60
1071.00	45520.30
1072.00	45638.89
1073.00	45714.56
1074.00	46039.90
1075.00	46126.50
1076.00	46161.61
1077.00	45970.46
1078.00	46198.27
1079.00	46056.28
1080.00	46131.18
1081.00	45899.47
1082.00	46021.17
1083.00	45944.72
1084.00	45997.77
1085.00	45993.87
1086.00	46227.14
1087.00	46384.74
1088.00	46473.68
1089.00	46613.33
1090.00	46735.82
1091.00	46869.23
1092.00	47011.22
1093.00	47021.36
1094.00	47219.53
1095.00	47175.06
1096.00	47373.22
1097.00	47271.02
1098.00	47419.25
1099.00	47397.41
1100.00	47465.28
1101.00	47386.49
1102.00	47373.22
1103.00	47444.22
1104.00	47535.50
1105.00	47564.37
1106.00	47452.02
1107.00	47310.03
1108.00	47310.81
1109.00	47383.37
1110.00	47674.37
1111.00	47557.35
1112.00	47609.62
1113.00	47386.49
1114.00	47396.63
1115.00	47296.77
1116.00	47309.25
1117.00	47404.43
1118.00	47440.32
1119.00	47652.53
1120.00	47706.36
1121.00	47951.34
1122.00	47905.30
1123.00	47803.10
1124.00	47622.88
1125.00	47511.31
1126.00	47466.84
1127.00	47530.04
1128.00	47536.28
1129.00	47732.89
1130.00	47746.15
1131.00	47818.70
1132.00	47974.74
1133.00	47986.44
1134.00	48051.20
1135.00	47961.48
1136.00	48115.17
1137.00	48109.71
1138.00	48202.55
1139.00	48197.87
1140.00	48165.88
1141.00	48150.28
1142.00	48272.77
1143.00	48469.37
1144.00	48335.18
1145.00	48247.02
1146.00	48193.97
1147.00	48386.68
1148.00	48393.70
1149.00	48454.55
1150.00	48410.86
1151.00	48577.04
1152.00	48563.00
1153.00	48701.09
1154.00	48486.54
1155.00	48396.04
1156.00	48244.68
1157.00	48268.87
1158.00	48224.40
1159.00	48301.64
1160.00	48582.50
1161.00	48971.81
1162.00	49280.76
1163.00	49158.27
1164.00	49039.68
1165.00	48942.16
1166.00	48819.67
1167.00	48795.49
1168.00	48638.67
1169.00	48599.66
1170.00	48430.36
1171.00	48480.30
1172.00	48623.85
1173.00	48793.15
1174.00	48811.87
1175.00	48735.41
1176.00	48639.45
1177.00	48490.44
1178.00	48495.90
1179.00	48523.99
1180.00	48687.82
1181.00	48801.73
1182.00	49121.60
1183.00	49230.05
1184.00	49361.12
1185.00	49271.40
1186.00	49294.80
1187.00	49333.81
1188.00	49249.55
1189.00	49192.60
1190.00	49173.10
1191.00	49242.53
1192.00	49142.67
1193.00	49038.12
1194.00	49024.86
1195.00	49275.30
1196.00	49358.00
1197.00	49357.22
1198.00	49251.89
1199.00	49251.89
1200.00	49184.80
1201.00	49205.86
1202.00	49143.45
1203.00	49301.82
1204.00	49362.68
1205.00	49658.37
1206.00	49783.19
1207.00	49865.11
1208.00	49731.70
1209.00	49419.63
1210.00	49137.21
1211.00	48965.57
1212.00	49120.82
1213.00	49207.42
1214.00	49138.77
1215.00	49175.44
1216.00	49279.20
1217.00	49486.73
1218.00	49389.20
1219.00	49354.88
1220.00	49389.20
1221.00	49429.77
1222.00	49347.07
1223.00	49294.80
1224.00	49155.15
1225.00	49139.55
1226.00	49188.70
1227.00	49396.23
1228.00	49493.75
1229.00	49468.78
1230.00	49425.09
1231.00	49613.12
1232.00	49780.07
1233.00	49818.30
1234.00	49720.78
1235.00	49670.07
1236.00	49729.36
1237.00	49769.93
1238.00	49858.87
1239.00	50092.93
1240.00	50234.92
1241.00	50293.43
1242.00	50250.52
1243.00	50196.69
1244.00	50244.28
1245.00	50327.76
1246.00	50405.00
1247.00	50440.10
1248.00	50535.29
1249.00	50544.65
1250.00	50322.30
1251.00	50096.05
1252.00	49893.20
1253.00	50095.27
1254.00	49979.02
1255.00	50051.58
1256.00	49869.79
1257.00	49931.43
1258.00	49983.70
1259.00	49978.24
1260.00	50092.15
1261.00	50238.04
1262.00	50512.66
1263.00	50786.50
1264.00	50942.54
1265.00	51153.97
1266.00	51160.21
1267.00	51274.90
1268.00	51153.19
1269.00	51210.92
1270.00	50923.04
1271.00	50781.04
1272.00	50778.70
1273.00	50851.26
1274.00	51029.92
1275.00	50743.59
1276.00	50756.86
1277.00	50617.21
1278.00	50710.83
1279.00	50830.97
1280.00	50900.41
1281.00	51043.18
1282.00	50962.82
1283.00	51119.64
1284.00	51079.07
1285.00	51306.10
1286.00	51277.24
1287.00	51305.32
1288.00	51331.07
1289.00	51471.50
1290.00	51660.30
1291.00	51587.75
1292.00	51725.06
1293.00	51729.74
1294.00	51690.73
1295.00	51531.57
1296.00	51466.04
1297.00	51487.10
1298.00	51391.14
1299.00	51160.99
1300.00	50930.84
1301.00	50880.91
1302.00	51091.55
1303.00	51331.07
1304.00	51546.40
1305.00	51566.68
1306.00	51540.16
1307.00	51402.85
1308.00	51299.08
1309.00	51325.61
1310.00	51425.47
1311.00	51593.21
1312.00	51793.71
1313.00	51779.67
1314.00	51821.80
1315.00	51840.53
1316.00	52005.92
1317.00	52110.47
1318.00	52053.51
1319.00	51963.01
1320.00	51894.36
1321.00	51973.16
1322.00	52065.22
1323.00	52169.76
1324.00	52139.33
1325.00	52126.07
1326.00	52193.95
1327.00	52431.90
1328.00	52555.95
1329.00	52694.82
1330.00	52660.49
1331.00	52743.19
1332.00	52463.89
1333.00	52263.38
1334.00	51980.96
1335.00	51882.66
1336.00	51821.80
1337.00	51865.49
1338.00	51884.22
1339.00	51921.66
1340.00	51917.76
1341.00	51987.20
1342.00	51958.33
1343.00	52012.16
1344.00	52022.31
1345.00	52038.69
1346.00	52073.02
1347.00	52205.65
1348.00	52293.81
1349.00	52385.09
1350.00	52216.57
1351.00	52205.65
1352.00	52023.87
1353.00	52112.03
1354.00	52098.76
1355.00	52259.48
1356.00	52310.97
1357.00	52466.23
1358.00	52442.82
1359.00	52495.10
1360.00	52468.57
1361.00	52530.20
1362.00	52415.52
1363.00	52423.32
1364.00	52346.08
1365.00	52584.04
1366.00	52534.10
1367.00	52495.10
1368.00	52479.49
1369.00	52603.54
1370.00	52765.82
1371.00	52730.71
1372.00	52587.16
1373.00	52578.57
1374.00	52605.10
1375.00	52705.74
1376.00	52617.58
1377.00	52573.89
1378.00	52484.95
1379.00	52506.02
1380.00	52510.70
1381.00	52610.56
1382.00	52691.70
1383.00	52520.84
1384.00	52243.10
1385.00	52075.36
1386.00	51985.64
1387.00	51905.28
1388.00	51851.45
1389.00	51854.57
1390.00	52076.92
1391.00	52060.54
1392.00	52211.11
1393.00	52211.89
1394.00	52445.16
1395.00	52499.00
1396.00	52560.63
1397.00	52278.99
1398.00	52146.36
1399.00	52025.43
1400.00	52100.32
1401.00	52105.79
1402.00	52250.12
1403.00	52362.46
1404.00	52451.41
1405.00	52495.88
1406.00	52478.71
1407.00	52523.96
1408.00	52493.54
1409.00	52469.35
1410.00	52422.54
1411.00	52573.89
1412.00	52683.12
1413.00	52768.94
1414.00	52671.42
1415.00	52681.56
1416.00	52779.86
1417.00	52697.16
1418.00	52626.95
1419.00	52461.55
1420.00	52586.38
1421.00	52694.04
1422.00	52853.98
1423.00	52755.67
1424.00	52658.15
1425.00	52595.74
1426.00	52669.08
1427.00	52676.10
1428.00	52529.42
1429.00	52300.05
1430.00	52162.74
1431.00	52249.34
1432.00	52325.02
1433.00	52268.06
1434.00	52219.69
1435.00	52052.73
1436.00	52061.32
1437.00	52000.46
1438.00	52070.68
1439.00	52170.54
1440.00	52084.72
1441.00	52052.73
1442.00	51960.67
1443.00	51927.91
1444.00	51814.78
1445.00	51868.61
1446.00	52031.67
1447.00	52282.89
1448.00	52303.95
1449.00	52249.34
1450.00	52445.94
1451.00	52559.85
1452.00	52687.02
1453.00	52527.86
1454.00	52414.74
1455.00	52238.42
1456.00	52108.91
1457.00	52108.91
1458.00	52246.22
1459.00	52312.53
1460.00	52282.89
1461.00	52325.02
1462.00	52265.72
1463.00	52271.18
1464.00	52062.10
1465.00	51909.18
1466.00	51865.49
1467.00	51862.37
1468.00	51976.28
1469.00	52038.69
1470.00	52051.95
1471.00	52179.90
1472.00	52115.15
1473.00	52080.04
1474.00	52031.67
1475.00	51947.41
1476.00	52051.95
1477.00	51989.54
1478.00	52052.73
1479.00	51969.26
1480.00	51868.61
1481.00	51944.29
1482.00	51986.42
1483.00	51998.12
1484.00	51841.31
1485.00	51698.53
1486.00	51661.08
1487.00	51643.14
1488.00	51640.80
1489.00	51597.11
1490.00	51473.06
1491.00	51475.40
1492.00	51466.04
1493.00	51514.41
1494.00	51508.17
1495.00	51506.61
1496.00	51600.23
1497.00	51714.14
1498.00	51796.06
1499.00	51851.45
1500.00	51727.40
1501.00	51747.68
1502.00	51806.20
1503.00	51800.74
1504.00	51759.39
1505.00	51716.48
1506.00	51699.31
1507.00	51665.77
1508.00	51406.75
1509.00	51386.46
1510.00	51342.77
1511.00	51499.59
1512.00	51480.08
1513.00	51601.01
1514.00	51555.76
1515.00	51620.52
1516.00	51346.67
1517.00	51320.93
1518.00	51300.64
1519.00	51439.51
1520.00	51422.35
1521.00	51398.94
1522.00	51416.11
1523.00	51449.66
1524.00	51398.16
1525.00	51271.00
1526.00	51068.15
1527.00	50988.57
1528.00	51060.35
1529.00	51179.71
1530.00	51271.78
1531.00	51300.64
1532.00	51306.88
1533.00	51373.20
1534.00	51390.36
1535.00	51444.98
1536.00	51448.10
1537.00	51559.66
1538.00	51724.28
1539.00	51746.90
1540.00	51566.68
1541.00	51274.90
1542.00	51193.76
1543.00	51307.66
1544.00	51483.98
1545.00	51402.07
1546.00	51344.33
1547.00	51198.44
1548.00	51164.89
1549.00	51143.05
1550.00	51313.90
1551.00	51373.20
1552.00	51423.91
1553.00	51363.06
1554.00	51302.98
1555.00	51249.93
1556.00	51231.99
1557.00	51200.00
1558.00	51201.56
1559.00	51114.96
1560.00	50948.00
1561.00	50877.01
1562.00	50751.40
1563.00	50884.03
1564.00	50780.26
1565.00	50667.14
1566.00	50589.12
1567.00	50451.03
1568.00	50413.58
1569.00	50303.57
1570.00	50272.37
1571.00	50348.04
1572.00	50395.63
1573.00	50329.32
1574.00	50319.18
1575.00	50326.98
1576.00	50370.67
1577.00	50344.92
1578.00	50373.01
1579.00	50511.10
1580.00	50510.32
1581.00	50490.04
1582.00	50423.72
1583.00	50617.21
1584.00	50780.26
1585.00	50779.48
1586.00	50511.88
1587.00	50295.77
1588.00	50482.23
1589.00	50700.68
1590.00	50688.20
1591.00	50506.42
1592.00	50332.44
1593.00	50302.01
1594.00	50341.80
1595.00	50221.66
1596.00	50377.69
1597.00	50269.25
1598.00	50350.38
1599.00	50194.35
1600.00	50165.48
1601.00	50100.73
1602.00	50045.33
1603.00	50067.18
1604.00	50300.45
1605.00	50385.49
1606.00	50340.24
1607.00	50024.27
1608.00	49908.02
1609.00	49886.96
1610.00	49890.08
1611.00	49898.66
1612.00	49968.88
1613.00	50039.87
1614.00	49952.49
1615.00	49978.24
1616.00	49940.79
1617.00	50185.77
1618.00	50208.39
1619.00	50341.02
1620.00	50405.00
1621.00	50350.38
1622.00	50518.12
1623.00	50390.95
1624.00	50399.54
1625.00	50103.07
1626.00	50007.11
1627.00	49842.49
1628.00	49872.92
1629.00	49825.32
1630.00	50039.09
1631.00	50140.52
1632.00	50228.68
1633.00	50175.62
1634.00	50113.21
1635.00	50150.66
1636.00	49950.15
1637.00	49858.87
1638.00	49522.62
1639.00	49615.46
1640.00	49624.82
1641.00	49751.21
1642.00	49665.39
1643.00	49498.43
1644.00	49436.02
1645.00	49368.14
1646.00	49368.14
1647.00	49398.57
1648.00	49455.52
1649.00	49418.85
1650.00	49357.22
1651.00	49248.77
1652.00	49212.88
1653.00	49258.91
1654.00	49217.57
1655.00	49186.36
1656.00	49115.36
1657.00	49153.59
1658.00	49258.13
1659.00	49297.14
1660.00	49244.09
1661.00	48936.70
1662.00	48863.36
1663.00	48985.07
1664.00	49388.42
1665.00	49648.22
1666.00	49624.82
1667.00	49545.24
1668.00	49450.84
1669.00	49319.77
1670.00	49193.38
1671.00	48986.63
1672.00	49059.97
1673.00	49081.81
1674.00	49165.29
1675.00	49037.34
1676.00	49083.37
1677.00	48969.47
1678.00	49024.86
1679.00	48956.21
1680.00	48978.05
1681.00	48808.75
1682.00	48701.87
1683.00	48552.85
1684.00	48583.28
1685.00	48752.58
1686.00	48880.53
1687.00	49051.39
1688.00	48906.27
1689.00	48885.99
1690.00	48709.67
1691.00	48531.79
1692.00	48237.66
1693.00	48066.80
1694.00	47841.33
1695.00	47881.90
1696.00	47878.00
1697.00	48109.71
1698.00	48318.80
1699.00	48492.78
1700.00	48642.57
1701.00	48742.44
1702.00	48822.79
1703.00	48932.80
1704.00	48825.14
1705.00	48725.27
1706.00	48496.68
1707.00	48373.41
1708.00	48404.62
1709.00	48449.09
1710.00	48319.58
1711.00	48168.22
1712.00	47895.16
1713.00	47721.96
1714.00	47479.33
1715.00	47462.16
1716.00	47590.11
1717.00	47745.37
1718.00	47772.67
1719.00	47746.93
1720.00	47786.72
1721.00	47650.19
1722.00	47682.95
1723.00	47614.30
1724.00	47695.44
1725.00	47597.91
1726.00	47388.83
1727.00	47226.55
1728.00	46976.89
1729.00	46920.72
1730.00	46888.73
1731.00	46760.78
1732.00	46634.39
1733.00	46414.38
1734.00	46426.09
1735.00	46369.13
1736.00	46380.06
1737.00	46234.94
1738.00	46266.15
1739.00	46225.58
1740.00	46116.36
1741.00	45819.89
1742.00	45662.29
1743.00	45517.96
1744.00	45540.58
1745.00	45364.26
1746.00	45476.61
1747.00	45329.94
1748.00	45249.58
1749.00	45140.35
1750.00	45002.26
1751.00	44977.29
1752.00	44742.46
1753.00	44655.08
1754.00	44481.88
1755.00	44577.06
1756.00	44483.44
1757.00	44698.77
1758.00	44576.28
1759.00	44676.93
1760.00	44378.12
1761.00	44228.32
1762.00	44068.39
1763.00	44066.83
1764.00	44092.57
1765.00	43844.48
1766.00	43723.55
1767.00	43493.40
1768.00	43736.81
1769.00	43779.72
1770.00	43980.23
1771.00	43763.34
1772.00	43712.63
1773.00	43517.58
1774.00	43507.44
1775.00	43300.69
1776.00	43226.57
1777.00	42988.62
1778.00	43049.47
1779.00	43021.39
1780.00	42982.38
1781.00	42845.85
1782.00	42640.66
1783.00	42624.28
1784.00	42472.14
1785.00	42518.95
1786.00	42411.29
1787.00	42339.51
1788.00	42150.71
1789.00	42063.33
1790.00	41722.39
1791.00	41418.12
1792.00	41193.43
1793.00	41155.20
1794.00	41009.31
1795.00	40813.48
1796.00	40732.34
1797.00	40690.21
1798.00	40493.61
1799.00	40318.07
1800.00	40037.20
1801.00	39966.99
1802.00	39724.35
1803.00	39675.98
1804.00	39414.62
1805.00	39197.73
1806.00	39037.80
1807.00	38982.40
1808.00	39058.08
1809.00	39009.71
1810.00	38933.25
1811.00	38774.88
1812.00	38718.70
1813.00	38602.46
1814.00	38507.27
1815.00	38379.32
1816.00	38319.25
1817.00	38165.56
1818.00	37958.03
1819.00	37793.41
1820.00	37479.00
1821.00	37255.87
1822.00	37052.24
1823.00	37216.08
1824.00	37032.74
1825.00	36845.49
1826.00	36547.47
1827.00	36615.34
1828.00	36613.00
1829.00	36594.28
1830.00	36098.86
1831.00	35973.25
1832.00	35695.51
1833.00	35802.39
1834.00	35486.42
1835.00	35278.89
1836.00	34962.14
1837.00	34778.02
1838.00	34540.07
1839.00	34334.88
1840.00	34075.86
1841.00	33830.10
1842.00	33693.57
1843.00	33639.74
1844.00	33475.90
1845.00	33379.94
1846.00	33140.43
1847.00	32971.13
1848.00	32660.62
1849.00	32347.76
1850.00	32073.92
1851.00	31852.35
1852.00	31665.89
1853.00	31730.64
1854.00	31650.28
1855.00	31556.66
1856.00	31259.41
1857.00	31063.59
1858.00	31048.77
1859.00	30881.03
1860.00	30692.22
1861.00	30323.98
1862.00	30260.79
1863.00	30225.68
1864.00	30190.57
1865.00	30101.63
1866.00	29928.43
1867.00	29780.98
1868.00	29424.43
1869.00	29207.55
1870.00	29052.29
1871.00	28929.80
1872.00	28687.95
1873.00	28347.01
1874.00	28064.58
1875.00	27899.19
1876.00	27770.46
1877.00	27726.77
1878.00	27593.36
1879.00	27271.14
1880.00	26945.03
1881.00	26771.05
1882.00	26813.18
1883.00	26764.81
1884.00	26647.78
1885.00	26332.59
1886.00	26173.43
1887.00	25916.75
1888.00	25686.60
1889.00	25461.91
1890.00	25325.38
1891.00	25254.38
1892.00	25076.50
1893.00	24856.49
1894.00	24720.74
1895.00	24615.41
1896.00	24424.27
1897.00	24386.82
1898.00	24189.44
1899.00	24238.59
1900.00	24183.20
1901.00	24090.35
1902.00	23940.56
1903.00	23701.82
1904.00	23667.50
1905.00	23503.66
1906.00	23289.11
1907.00	22953.63
1908.00	22939.59
1909.00	22799.16
1910.00	22668.87
1911.00	22203.88
1912.00	21864.50
1913.00	21687.40
1914.00	21569.60
1915.00	21608.61
1916.00	21660.88
1917.00	21587.54
1918.00	21519.67
1919.00	21338.66
1920.00	21170.15
1921.00	20976.66
1922.00	20664.59
1923.00	20560.83
1924.00	20358.76
1925.00	20294.00
1926.00	20065.41
1927.00	19762.70
1928.00	19593.40
1929.00	19520.07
1930.00	19619.93
1931.00	19516.95
1932.00	19357.01
1933.00	19205.66
1934.00	19011.39
1935.00	18975.50
1936.00	18764.86
1937.00	18627.54
1938.00	18428.60
1939.00	18374.77
1940.00	18335.76
1941.00	18253.84
1942.00	18137.59
1943.00	18093.90
1944.00	17907.44
1945.00	17808.36
1946.00	17490.82
1947.00	17362.87
1948.00	17131.16
1949.00	17152.23
1950.00	17114.78
1951.00	17023.50
1952.00	16942.36
1953.00	16847.96
1954.00	16801.15
1955.00	16599.08
1956.00	16451.63
1957.00	16413.40
1958.00	16241.76
1959.00	16084.16
1960.00	15920.32
1961.00	15914.08
1962.00	15794.72
1963.00	15701.87
1964.00	15555.20
1965.00	15458.46
1966.00	15374.20
1967.00	15238.45
1968.00	15193.20
1969.00	14922.48
1970.00	14935.74
1971.00	14781.26
1972.00	14749.28
1973.00	14630.69
1974.00	14629.13
1975.00	14558.13
1976.00	14396.64
1977.00	14239.04
1978.00	14134.50
1979.00	14008.11
1980.00	13897.32
1981.00	13719.44
1982.00	13661.71
1983.00	13578.23
1984.00	13549.36
1985.00	13475.24
1986.00	13438.58
1987.00	13402.69
1988.00	13323.11
1989.00	13207.64
1990.00	13125.72
1991.00	13006.36
1992.00	12853.44
1993.00	12721.59
1994.00	12690.38
1995.00	12543.71
1996.00	12453.21
1997.00	12379.87
1998.00	12429.02
1999.00	12354.13
2000.00	12242.56
2001.00	12134.12
2002.00	12141.92
2003.00	12063.90
2004.00	11969.50
2005.00	11798.64
2006.00	11713.60
2007.00	11639.48
2008.00	11612.18
2009.00	11512.32
2010.00	11479.55
2011.00	11428.84
2012.00	11464.72
2013.00	11385.93
2014.00	11268.90
2015.00	11136.27
2016.00	11034.07
2017.00	11034.07
2018.00	10994.28
2019.00	10991.94
2020.00	10926.40
2021.00	10842.92
2022.00	10753.20
2023.00	10707.95
2024.00	10675.18
2025.00	10590.92
2026.00	10500.42
2027.00	10418.50
2028.00	10348.29
2029.00	10229.70
2030.00	10153.24
2031.00	10183.67
2032.00	10164.95
2033.00	10166.51
2034.00	10068.98
2035.00	9996.43
2036.00	9858.34
2037.00	9767.06
2038.00	9707.76
2039.00	9696.84
2040.00	9696.06
2041.00	9643.01
2042.00	9514.28
2043.00	9415.20
2044.00	9394.13
2045.00	9436.26
2046.00	9396.47
2047.00	9310.65
>>>>>End Processed Spectral Data<<<<<
