SpectraSuite Data File
++++++++++++++++++++++++++++++++++++
Date: Thu Nov 16 14:03:28 EST 2017
User: cheriyan
Dark Spectrum Present: No
Reference Spectrum Present: No
Number of Sampled Component Spectra: 1
Spectrometers: USB2+H05261
Integration Time (usec): 100000 (USB2+H05261)
Spectra Averaged: 1 (USB2+H05261)
Boxcar Smoothing: 1 (USB2+H05261)
Correct for Electrical Dark: No (USB2+H05261)
Strobe/Lamp Enabled: No (USB2+H05261)
Correct for Detector Non-linearity: No (USB2+H05261)
Correct for Stray Light: No (USB2+H05261)
Number of Pixels in Processed Spectrum: 2048
>>>>>Begin Processed Spectral Data<<<<<
0.00	322.99
1.00	322.99
2.00	308.17
3.00	286.33
4.00	261.36
5.00	233.27
6.00	220.79
7.00	230.93
8.00	236.39
9.00	267.60
10.00	248.10
11.00	268.38
12.00	248.88
13.00	266.04
14.00	271.50
15.00	268.38
16.00	263.70
17.00	275.40
18.00	269.94
19.00	292.57
20.00	296.47
21.00	307.39
22.00	298.81
23.00	344.06
24.00	535.98
25.00	711.52
26.00	840.25
27.00	830.89
28.00	840.25
29.00	830.89
30.00	837.91
31.00	835.57
32.00	866.78
33.00	908.91
34.00	946.36
35.00	941.68
36.00	927.63
37.00	912.03
38.00	905.79
39.00	894.86
40.00	892.52
41.00	890.18
42.00	926.07
43.00	960.40
44.00	991.61
45.00	958.84
46.00	938.55
47.00	946.36
48.00	972.10
49.00	986.93
50.00	956.50
51.00	987.71
52.00	1009.55
53.00	1040.76
54.00	1031.40
55.00	1018.13
56.00	1007.21
57.00	1029.06
58.00	1021.25
59.00	1015.79
60.00	1007.99
61.00	1001.75
62.00	1016.57
63.00	992.39
64.00	1008.77
65.00	1047.00
66.00	1087.57
67.00	1095.37
68.00	1066.50
69.00	1076.65
70.00	1097.71
71.00	1111.75
72.00	1093.81
73.00	1079.77
74.00	1086.01
75.00	1098.49
76.00	1110.19
77.00	1135.94
78.00	1135.16
79.00	1127.36
80.00	1109.41
81.00	1097.71
82.00	1097.71
83.00	1121.90
84.00	1114.88
85.00	1122.68
86.00	1145.30
87.00	1194.45
88.00	1229.56
89.00	1206.94
90.00	1199.13
91.00	1210.84
92.00	1221.76
93.00	1241.26
94.00	1225.66
95.00	1217.08
96.00	1208.50
97.00	1220.98
98.00	1255.31
99.00	1249.85
100.00	1246.73
101.00	1271.69
102.00	1325.52
103.00	1345.81
104.00	1306.02
105.00	1288.86
106.00	1273.25
107.00	1267.79
108.00	1257.65
109.00	1284.17
110.00	1303.68
111.00	1293.54
112.00	1328.64
113.00	1390.28
114.00	1381.70
115.00	1364.53
116.00	1348.93
117.00	1403.54
118.00	1387.94
119.00	1370.77
120.00	1375.45
121.00	1400.42
122.00	1401.98
123.00	1418.36
124.00	1463.61
125.00	1496.38
126.00	1507.30
127.00	1444.89
128.00	1450.35
129.00	1469.08
130.00	1517.45
131.00	1540.85
132.00	1515.89
133.00	1530.71
134.00	1515.89
135.00	1531.49
136.00	1537.73
137.00	1523.69
138.00	1560.36
139.00	1535.39
140.00	1554.12
141.00	1554.12
142.00	1575.96
143.00	1600.15
144.00	1582.98
145.00	1577.52
146.00	1572.84
147.00	1606.39
148.00	1640.72
149.00	1661.00
150.00	1658.66
151.00	1685.19
152.00	1716.39
153.00	1742.92
154.00	1767.88
155.00	1772.57
156.00	1775.69
157.00	1758.52
158.00	1755.40
159.00	1745.26
160.00	1745.26
161.00	1760.86
162.00	1776.47
163.00	1811.57
164.00	1821.72
165.00	1827.18
166.00	1821.72
167.00	1824.06
168.00	1840.44
169.00	1841.22
170.00	1852.14
171.00	1869.31
172.00	1893.49
173.00	1912.22
174.00	1922.36
175.00	1955.13
176.00	1960.59
177.00	2005.84
178.00	2015.20
179.00	2033.93
180.00	2015.20
181.00	2008.96
182.00	2035.49
183.00	2047.19
184.00	2064.35
185.00	2051.09
186.00	2071.37
187.00	2128.33
188.00	2140.81
189.00	2123.65
190.00	2097.12
191.00	2140.81
192.00	2168.12
193.00	2209.47
194.00	2198.54
195.00	2214.93
196.00	2216.49
197.00	2204.78
198.00	2232.87
199.00	2237.55
200.00	2253.94
201.00	2274.22
202.00	2285.14
203.00	2341.32
204.00	2319.47
205.00	2299.97
206.00	2258.62
207.00	2312.45
208.00	2335.85
209.00	2341.32
210.00	2372.52
211.00	2378.76
212.00	2430.26
213.00	2403.73
214.00	2460.68
215.00	2461.46
216.00	2461.46
217.00	2442.74
218.00	2477.85
219.00	2521.54
220.00	2540.26
221.00	2568.35
222.00	2550.40
223.00	2548.06
224.00	2536.36
225.00	2569.13
226.00	2610.48
227.00	2654.17
228.00	2687.72
229.00	2689.28
230.00	2675.23
231.00	2663.53
232.00	2718.14
233.00	2741.55
234.00	2744.67
235.00	2730.62
236.00	2762.61
237.00	2796.94
238.00	2829.71
239.00	2830.49
240.00	2854.67
241.00	2858.57
242.00	2910.85
243.00	2903.04
244.00	2904.60
245.00	2897.58
246.00	2940.49
247.00	3032.55
248.00	3046.60
249.00	3073.12
250.00	3057.52
251.00	3078.58
252.00	3091.85
253.00	3074.68
254.00	3147.24
255.00	3181.57
256.00	3190.93
257.00	3152.70
258.00	3162.84
259.00	3219.80
260.00	3275.97
261.00	3299.38
262.00	3316.54
263.00	3355.55
264.00	3394.56
265.00	3417.96
266.00	3365.69
267.00	3391.44
268.00	3403.14
269.00	3465.55
270.00	3440.59
271.00	3463.99
272.00	3503.78
273.00	3603.64
274.00	3610.67
275.00	3618.47
276.00	3623.93
277.00	3635.63
278.00	3679.32
279.00	3634.85
280.00	3700.39
281.00	3707.41
282.00	3748.76
283.00	3747.98
284.00	3751.10
285.00	3765.92
286.00	3797.13
287.00	3818.19
288.00	3802.59
289.00	3772.16
290.00	3797.13
291.00	3846.28
292.00	3928.20
293.00	3950.82
294.00	3983.59
295.00	3985.93
296.00	3980.47
297.00	3941.46
298.00	3923.52
299.00	3925.86
300.00	4007.78
301.00	4017.92
302.00	4009.34
303.00	4019.48
304.00	4083.45
305.00	4139.63
306.00	4131.83
307.00	4137.29
308.00	4109.98
309.00	4099.06
310.00	4101.40
311.00	4126.36
312.00	4150.55
313.00	4134.17
314.00	4142.75
315.00	4125.58
316.00	4170.05
317.00	4195.80
318.00	4259.78
319.00	4261.34
320.00	4290.20
321.00	4271.48
322.00	4325.31
323.00	4376.80
324.00	4454.04
325.00	4475.88
326.00	4534.40
327.00	4564.82
328.00	4574.19
329.00	4546.10
330.00	4596.03
331.00	4584.33
332.00	4609.30
333.00	4574.19
334.00	4674.05
335.00	4704.48
336.00	4714.62
337.00	4656.89
338.00	4617.88
339.00	4653.77
340.00	4711.50
341.00	4842.57
342.00	4833.99
343.00	4816.04
344.00	4798.10
345.00	4924.49
346.00	4978.32
347.00	4977.54
348.00	4962.72
349.00	4983.00
350.00	5008.75
351.00	5025.13
352.00	5033.71
353.00	5048.54
354.00	5068.82
355.00	5076.62
356.00	5118.75
357.00	5146.84
358.00	5185.85
359.00	5212.37
360.00	5205.35
361.00	5264.64
362.00	5294.29
363.00	5310.68
364.00	5354.37
365.00	5341.10
366.00	5373.87
367.00	5381.67
368.00	5422.24
369.00	5428.48
370.00	5420.68
371.00	5437.84
372.00	5490.90
373.00	5505.72
374.00	5506.50
375.00	5512.74
376.00	5614.16
377.00	5653.95
378.00	5702.33
379.00	5692.18
380.00	5757.72
381.00	5817.01
382.00	5796.73
383.00	5870.06
384.00	5941.06
385.00	6053.41
386.00	6067.45
387.00	6090.07
388.00	6135.32
389.00	6139.23
390.00	6183.70
391.00	6226.61
392.00	6271.08
393.00	6288.24
394.00	6281.22
395.00	6317.89
396.00	6337.39
397.00	6420.87
398.00	6515.27
399.00	6584.71
400.00	6576.13
401.00	6590.17
402.00	6699.39
403.00	6811.74
404.00	6896.78
405.00	6904.58
406.00	6957.63
407.00	6906.92
408.00	6788.33
409.00	6748.54
410.00	6821.88
411.00	6956.85
412.00	6985.72
413.00	6946.71
414.00	6927.21
415.00	6942.03
416.00	6971.68
417.00	6947.49
418.00	6938.91
419.00	6970.12
420.00	7034.09
421.00	7107.43
422.00	7122.25
423.00	7124.59
424.00	7116.01
425.00	7203.39
426.00	7244.74
427.00	7240.84
428.00	7184.66
429.00	7172.96
430.00	7255.66
431.00	7232.26
432.00	7208.07
433.00	7204.17
434.00	7278.29
435.00	7370.35
436.00	7325.10
437.00	7318.86
438.00	7308.71
439.00	7353.96
440.00	7446.02
441.00	7538.09
442.00	7634.05
443.00	7666.81
444.00	7653.55
445.00	7680.86
446.00	7733.91
447.00	7864.20
448.00	7818.95
449.00	7779.94
450.00	7806.47
451.00	7914.91
452.00	7962.50
453.00	8013.21
454.00	8057.68
455.00	8146.62
456.00	8136.48
457.00	8110.74
458.00	8132.58
459.00	8108.40
460.00	8139.60
461.00	8098.25
462.00	8148.18
463.00	8180.17
464.00	8287.84
465.00	8347.13
466.00	8372.10
467.00	8429.05
468.00	8498.49
469.00	8574.16
470.00	8603.81
471.00	8585.87
472.00	8633.46
473.00	8656.08
474.00	8745.02
475.00	8818.36
476.00	8846.44
477.00	8937.73
478.00	8968.93
479.00	9084.40
480.00	9003.26
481.00	9039.93
482.00	8989.22
483.00	9035.25
484.00	9122.63
485.00	9156.18
486.00	9268.52
487.00	9234.97
488.00	9290.37
489.00	9264.62
490.00	9296.61
491.00	9258.38
492.00	9353.56
493.00	9426.12
494.00	9513.50
495.00	9447.18
496.00	9476.83
497.00	9522.08
498.00	9610.24
499.00	9649.25
500.00	9765.50
501.00	9820.11
502.00	9848.19
503.00	9819.33
504.00	9850.53
505.00	9934.79
506.00	9966.00
507.00	10101.75
508.00	10087.71
509.00	10220.34
510.00	10295.24
511.00	10348.29
512.00	10395.10
513.00	10325.66
514.00	10377.16
515.00	10332.68
516.00	10391.98
517.00	10397.44
518.00	10506.66
519.00	10478.58
520.00	10611.99
521.00	10583.12
522.00	10594.04
523.00	10618.23
524.00	10780.51
525.00	10957.61
526.00	10979.45
527.00	10863.21
528.00	10777.39
529.00	10736.04
530.00	10808.59
531.00	10896.75
532.00	10975.55
533.00	11051.23
534.00	11080.88
535.00	11197.90
536.00	11178.40
537.00	11152.65
538.00	11135.49
539.00	11248.61
540.00	11367.20
541.00	11344.58
542.00	11317.27
543.00	11340.68
544.00	11410.89
545.00	11435.08
546.00	11471.75
547.00	11504.51
548.00	11664.45
549.00	11729.20
550.00	11833.75
551.00	11810.34
552.00	11857.93
553.00	11914.11
554.00	11942.97
555.00	12053.76
556.00	12052.20
557.00	12126.32
558.00	12240.22
559.00	12400.94
560.00	12562.44
561.00	12499.24
562.00	12511.72
563.00	12458.67
564.00	12519.53
565.00	12621.73
566.00	12841.74
567.00	12943.94
568.00	12965.01
569.00	12828.48
570.00	12863.58
571.00	13032.10
572.00	13183.46
573.00	13232.61
574.00	13167.85
575.00	13278.64
576.00	13488.51
577.00	13660.15
578.00	13737.38
579.00	13779.51
580.00	13799.02
581.00	13870.79
582.00	14051.80
583.00	14175.06
584.00	14384.15
585.00	14467.63
586.00	14675.94
587.00	14641.61
588.00	14555.79
589.00	14595.58
590.00	14629.91
591.00	14881.91
592.00	15065.25
593.00	15399.16
594.00	15412.43
595.00	15389.02
596.00	15445.20
597.00	15734.64
598.00	16008.48
599.00	16202.75
600.00	16211.33
601.00	16255.02
602.00	16262.04
603.00	16478.15
604.00	16655.25
605.00	16987.61
606.00	17051.58
607.00	17119.46
608.00	17140.52
609.00	17310.60
610.00	17365.99
611.00	17392.52
612.00	17472.10
613.00	17715.51
614.00	17929.28
615.00	18056.45
616.00	18176.60
617.00	18285.05
618.00	18479.31
619.00	18615.84
620.00	18828.05
621.00	18920.11
622.00	19108.91
623.00	19300.84
624.00	19590.28
625.00	19657.38
626.00	19739.30
627.00	19761.14
628.00	19868.81
629.00	20038.89
630.00	20404.01
631.00	20602.96
632.00	20758.21
633.00	20787.08
634.00	21034.39
635.00	21075.74
636.00	21297.31
637.00	21506.40
638.00	21826.28
639.00	21827.06
640.00	21810.67
641.00	21920.68
642.00	22260.84
643.00	22647.80
644.00	22896.68
645.00	22910.72
646.00	22970.02
647.00	22915.40
648.00	23072.22
649.00	23247.76
650.00	23487.28
651.00	23765.80
652.00	23849.28
653.00	23984.25
654.00	24102.06
655.00	24407.89
656.00	24732.44
657.00	24854.15
658.00	24910.32
659.00	25050.75
660.00	25285.59
661.00	25504.04
662.00	25643.69
663.00	25735.75
664.00	25886.32
665.00	26008.81
666.00	26292.80
667.00	26490.18
668.00	26704.73
669.00	26913.04
670.00	27012.12
671.00	27200.93
672.00	27214.97
673.00	27395.97
674.00	27553.57
675.00	27814.93
676.00	27921.81
677.00	28033.38
678.00	28203.46
679.00	28493.68
680.00	28681.70
681.00	28913.42
682.00	29060.09
683.00	29192.72
684.00	29162.29
685.00	29372.94
686.00	29585.15
687.00	29809.06
688.00	29877.72
689.00	30152.34
690.00	30415.26
691.00	30636.05
692.00	30654.78
693.00	30837.34
694.00	31164.23
695.00	31399.85
696.00	31537.94
697.00	31641.70
698.00	31847.67
699.00	31928.03
700.00	32059.10
701.00	32212.01
702.00	32583.38
703.00	32706.65
704.00	32973.47
705.00	33159.15
706.00	33384.62
707.00	33545.34
708.00	33678.75
709.00	33861.31
710.00	33949.47
711.00	34117.99
712.00	34311.47
713.00	34461.27
714.00	34477.65
715.00	34578.29
716.00	34579.85
717.00	34810.79
718.00	34763.98
719.00	35076.05
720.00	34985.55
721.00	35044.06
722.00	35104.13
723.00	35467.70
724.00	35976.37
725.00	36025.53
726.00	35976.37
727.00	36057.51
728.00	36272.84
729.00	36433.56
730.00	36392.21
731.00	36549.03
732.00	36582.57
733.00	36658.25
734.00	36740.95
735.00	36861.10
736.00	36977.34
737.00	37134.94
738.00	37428.29
739.00	37560.92
740.00	37479.00
741.00	37732.56
742.00	37858.17
743.00	38009.52
744.00	38143.71
745.00	38474.51
746.00	38805.30
747.00	38800.62
748.00	38823.25
749.00	38880.98
750.00	38962.90
751.00	39012.05
752.00	39248.44
753.00	39417.74
754.00	39702.51
755.00	39771.94
756.00	40028.62
757.00	40031.74
758.00	40164.37
759.00	40135.51
760.00	40203.38
761.00	40334.45
762.00	40456.94
763.00	40691.77
764.00	40696.45
765.00	40797.88
766.00	41003.85
767.00	41314.36
768.00	41336.98
769.00	41361.17
770.00	41534.37
771.00	41803.53
772.00	42073.47
773.00	41979.07
774.00	42202.98
775.00	42180.35
776.00	42558.74
777.00	42624.28
778.00	42814.64
779.00	42845.85
780.00	42950.39
781.00	43115.79
782.00	43160.26
783.00	43249.98
784.00	43327.22
785.00	43470.77
786.00	43797.66
787.00	44171.37
788.00	44343.01
789.00	44522.45
790.00	44628.55
791.00	44825.94
792.00	44888.35
793.00	44832.18
794.00	44953.89
795.00	44841.54
796.00	45003.04
797.00	45031.13
798.00	45367.38
799.00	45512.50
800.00	45610.80
801.00	45722.37
802.00	45806.62
803.00	45968.90
804.00	46060.18
805.00	46232.60
806.00	46504.88
807.00	46593.04
808.00	46791.21
809.00	46773.27
810.00	46887.17
811.00	46933.20
812.00	46973.77
813.00	47024.48
814.00	47023.70
815.00	47262.44
816.00	47415.35
817.00	47588.55
818.00	47658.77
819.00	47878.78
820.00	47906.87
821.00	48009.07
822.00	48055.10
823.00	48160.42
824.00	48325.04
825.00	48374.19
826.00	48525.55
827.00	48591.86
828.00	48752.58
829.00	48745.56
830.00	48832.16
831.00	48917.98
832.00	49286.22
833.00	49297.92
834.00	49350.98
835.00	49322.89
836.00	49470.34
837.00	49633.40
838.00	49688.01
839.00	49833.13
840.00	49925.97
841.00	50032.07
842.00	50259.88
843.00	50376.13
844.00	50578.98
845.00	50638.27
846.00	50742.03
847.00	50747.50
848.00	50829.41
849.00	50958.92
850.00	51071.27
851.00	51164.89
852.00	51231.21
853.00	51292.06
854.00	51278.80
855.00	51346.67
856.00	51490.23
857.00	51675.91
858.00	51717.26
859.00	51795.28
860.00	51892.80
861.00	51981.74
862.00	51972.38
863.00	51804.64
864.00	51778.89
865.00	51781.23
866.00	51936.49
867.00	51998.12
868.00	52096.42
869.00	52406.94
870.00	52656.59
871.00	52753.33
872.00	52544.25
873.00	52581.70
874.00	52772.06
875.00	52925.75
876.00	53044.34
877.00	53118.46
878.00	53245.63
879.00	53268.25
880.00	53251.09
881.00	53329.11
882.00	53267.47
883.00	53375.92
884.00	53235.48
885.00	53174.63
886.00	53265.91
887.00	53469.54
888.00	53690.33
889.00	53686.43
890.00	53670.82
891.00	53641.18
892.00	53666.92
893.00	53631.04
894.00	53677.07
895.00	53608.41
896.00	53748.84
897.00	53804.24
898.00	53933.74
899.00	54017.22
900.00	54199.79
901.00	54318.37
902.00	54414.33
903.00	54504.84
904.00	54582.07
905.00	54791.94
906.00	54878.54
907.00	54986.99
908.00	54774.00
909.00	54913.65
910.00	54843.43
911.00	54941.74
912.00	54697.54
913.00	54657.75
914.00	54608.60
915.00	54663.21
916.00	54597.68
917.00	54640.59
918.00	54671.01
919.00	54713.92
920.00	54781.80
921.00	54885.56
922.00	55081.39
923.00	55057.98
924.00	55120.40
925.00	55270.97
926.00	55518.29
927.00	55529.99
928.00	55537.01
929.00	55597.87
930.00	55699.29
931.00	55777.31
932.00	55824.90
933.00	55884.97
934.00	55837.38
935.00	55869.37
936.00	55969.23
937.00	56049.59
938.00	55895.11
939.00	55828.80
940.00	55856.10
941.00	55948.17
942.00	56052.71
943.00	56172.08
944.00	56329.67
945.00	56376.48
946.00	56408.47
947.00	56378.82
948.00	56474.01
949.00	56431.88
950.00	56515.36
951.00	56548.12
952.00	56537.20
953.00	56574.65
954.00	56598.05
955.00	56777.50
956.00	56837.57
957.00	56851.61
958.00	56953.04
959.00	57049.78
960.00	57103.61
961.00	57032.61
962.00	57094.25
963.00	57137.94
964.00	57346.25
965.00	57359.51
966.00	57517.88
967.00	57509.30
968.00	57577.96
969.00	57468.73
970.00	57525.69
971.00	57643.49
972.00	57856.48
973.00	57900.95
974.00	57878.33
975.00	57905.63
976.00	57808.89
977.00	57784.71
978.00	57666.12
979.00	57819.81
980.00	57832.30
981.00	58019.54
982.00	57947.76
983.00	58037.48
984.00	58083.51
985.00	58155.29
986.00	58209.90
987.00	58020.32
988.00	58115.50
989.00	58020.32
990.00	58306.65
991.00	58251.25
992.00	58401.83
993.00	58380.76
994.00	58601.55
995.00	58695.95
996.00	58711.56
997.00	58819.22
998.00	58923.77
999.00	59061.86
1000.00	59080.58
1001.00	59051.72
1002.00	58963.56
1003.00	58706.10
1004.00	58670.99
1005.00	58664.75
1006.00	58838.73
1007.00	58917.53
1008.00	59014.27
1009.00	58911.28
1010.00	58951.85
1011.00	58937.81
1012.00	59167.18
1013.00	59231.94
1014.00	59324.00
1015.00	59290.45
1016.00	59329.46
1017.00	59442.59
1018.00	59514.36
1019.00	59572.10
1020.00	59494.08
1021.00	59565.85
1022.00	59570.53
1023.00	59518.26
1024.00	59518.26
1025.00	59515.92
1026.00	59732.03
1027.00	59811.61
1028.00	59884.95
1029.00	59810.05
1030.00	59716.43
1031.00	59842.82
1032.00	59980.13
1033.00	60186.88
1034.00	60161.13
1035.00	60130.70
1036.00	60094.03
1037.00	60058.15
1038.00	60066.73
1039.00	60016.80
1040.00	60079.21
1041.00	60219.64
1042.00	60300.00
1043.00	60372.56
1044.00	60418.59
1045.00	60512.21
1046.00	60563.70
1047.00	60475.54
1048.00	60481.78
1049.00	60491.15
1050.00	60615.97
1051.00	60744.70
1052.00	60867.19
1053.00	60889.04
1054.00	60766.55
1055.00	60552.78
1056.00	60457.60
1057.00	60583.21
1058.00	60772.79
1059.00	60903.86
1060.00	60948.33
1061.00	60988.12
1062.00	61100.47
1063.00	61136.35
1064.00	61169.90
1065.00	61026.35
1066.00	60960.03
1067.00	60920.24
1068.00	60964.71
1069.00	61002.16
1070.00	61038.05
1071.00	61073.94
1072.00	61141.03
1073.00	61186.28
1074.00	61352.46
1075.00	61407.86
1076.00	61472.61
1077.00	61473.39
1078.00	61511.62
1079.00	61555.31
1080.00	61535.02
1081.00	61592.76
1082.00	61634.11
1083.00	61739.43
1084.00	61651.27
1085.00	61637.23
1086.00	61600.56
1087.00	61730.07
1088.00	61702.76
1089.00	61737.09
1090.00	61681.70
1091.00	61705.88
1092.00	61772.20
1093.00	61773.76
1094.00	61886.88
1095.00	61821.35
1096.00	61890.79
1097.00	61882.20
1098.00	61942.28
1099.00	61938.38
1100.00	61937.60
1101.00	61975.83
1102.00	62041.36
1103.00	62072.57
1104.00	62091.29
1105.00	62141.22
1106.00	62177.89
1107.00	62173.21
1108.00	62172.43
1109.00	62196.62
1110.00	62275.41
1111.00	62237.97
1112.00	62246.55
1113.00	62177.89
1114.00	62197.40
1115.00	62138.10
1116.00	62110.80
1117.00	62191.93
1118.00	62216.12
1119.00	62226.26
1120.00	62246.55
1121.00	62281.66
1122.00	62448.61
1123.00	62403.36
1124.00	62453.29
1125.00	62365.91
1126.00	62353.43
1127.00	62391.66
1128.00	62422.09
1129.00	62419.75
1130.00	62412.73
1131.00	62508.69
1132.00	62571.10
1133.00	62534.43
1134.00	62394.00
1135.00	62261.37
1136.00	62298.82
1137.00	62403.36
1138.00	62553.94
1139.00	62658.48
1140.00	62634.30
1141.00	62685.79
1142.00	62694.37
1143.00	62762.25
1144.00	62767.71
1145.00	62738.84
1146.00	62748.20
1147.00	62693.59
1148.00	62741.96
1149.00	62716.99
1150.00	62743.52
1151.00	62640.54
1152.00	62625.71
1153.00	62620.25
1154.00	62608.55
1155.00	62591.39
1156.00	62600.75
1157.00	62673.30
1158.00	62653.80
1159.00	62695.93
1160.00	62759.90
1161.00	62915.94
1162.00	62926.86
1163.00	62840.26
1164.00	62741.18
1165.00	62746.64
1166.00	62766.15
1167.00	62880.05
1168.00	63026.73
1169.00	63052.47
1170.00	63059.49
1171.00	63006.44
1172.00	62964.31
1173.00	62878.49
1174.00	62805.94
1175.00	62880.05
1176.00	62919.84
1177.00	62955.73
1178.00	62954.17
1179.00	62951.83
1180.00	62931.54
1181.00	62907.36
1182.00	62912.82
1183.00	62892.54
1184.00	62942.47
1185.00	62990.06
1186.00	63042.33
1187.00	63123.47
1188.00	63135.17
1189.00	63105.52
1190.00	63086.02
1191.00	62972.89
1192.00	62900.34
1193.00	62816.86
1194.00	62816.86
1195.00	62892.54
1196.00	62851.19
1197.00	62907.36
1198.00	62942.47
1199.00	63038.43
1200.00	63102.40
1201.00	63159.36
1202.00	63142.19
1203.00	63167.94
1204.00	63105.52
1205.00	63093.04
1206.00	63008.00
1207.00	62955.73
1208.00	62944.81
1209.00	63023.61
1210.00	63147.65
1211.00	63283.40
1212.00	63324.75
1213.00	63341.14
1214.00	63177.30
1215.00	63146.09
1216.00	63016.58
1217.00	63067.30
1218.00	63056.37
1219.00	63195.24
1220.00	63257.66
1221.00	63217.09
1222.00	63191.34
1223.00	63233.47
1224.00	63265.46
1225.00	63259.22
1226.00	63217.09
1227.00	63210.07
1228.00	63135.17
1229.00	63052.47
1230.00	63086.80
1231.00	63232.69
1232.00	63275.60
1233.00	63377.03
1234.00	63252.98
1235.00	63295.11
1236.00	63235.03
1237.00	63352.84
1238.00	63441.00
1239.00	63601.72
1240.00	63674.27
1241.00	63752.29
1242.00	63649.31
1243.00	63620.44
1244.00	63538.52
1245.00	63505.76
1246.00	63554.13
1247.00	63619.66
1248.00	63738.25
1249.00	63762.43
1250.00	63733.57
1251.00	63756.19
1252.00	63756.19
1253.00	63832.65
1254.00	63781.16
1255.00	63788.18
1256.00	63797.54
1257.00	63831.87
1258.00	63806.12
1259.00	63695.34
1260.00	63722.65
1261.00	63771.80
1262.00	63902.87
1263.00	63953.58
1264.00	64011.31
1265.00	64005.07
1266.00	63962.94
1267.00	63898.97
1268.00	63950.46
1269.00	63967.62
1270.00	64030.04
1271.00	64067.48
1272.00	64180.61
1273.00	64167.35
1274.00	64150.18
1275.00	64108.05
1276.00	64111.17
1277.00	63998.83
1278.00	63910.67
1279.00	63924.71
1280.00	64008.19
1281.00	64165.01
1282.00	64239.90
1283.00	64381.12
1284.00	64282.03
1285.00	64296.86
1286.00	64275.01
1287.00	64408.42
1288.00	64416.22
1289.00	64383.46
1290.00	64259.41
1291.00	64238.34
1292.00	64274.23
1293.00	64368.63
1294.00	64413.88
1295.00	64406.86
1296.00	64404.52
1297.00	64380.34
1298.00	64417.00
1299.00	64449.77
1300.00	64453.67
1301.00	64477.86
1302.00	64435.73
1303.00	64428.71
1304.00	64432.61
1305.00	64477.86
1306.00	64504.38
1307.00	64458.35
1308.00	64498.14
1309.00	64482.54
1310.00	64464.60
1311.00	64424.03
1312.00	64578.50
1313.00	64672.90
1314.00	64779.01
1315.00	64719.71
1316.00	64714.25
1317.00	64644.82
1318.00	64619.07
1319.00	64651.84
1320.00	64784.47
1321.00	64902.28
1322.00	64968.59
1323.00	64937.38
1324.00	64952.99
1325.00	64903.06
1326.00	64834.40
1327.00	64736.10
1328.00	64679.92
1329.00	64700.21
1330.00	64781.35
1331.00	64899.93
1332.00	64974.83
1333.00	64951.43
1334.00	64917.88
1335.00	64864.05
1336.00	64908.52
1337.00	65031.00
1338.00	65120.73
1339.00	65198.74
1340.00	65138.67
1341.00	65163.64
1342.00	65123.07
1343.00	65112.14
1344.00	65053.63
1345.00	65011.50
1346.00	64951.43
1347.00	64963.91
1348.00	64932.70
1349.00	64912.42
1350.00	64796.95
1351.00	64787.59
1352.00	64789.93
1353.00	64897.59
1354.00	64850.78
1355.00	64844.54
1356.00	64840.64
1357.00	64976.39
1358.00	64994.34
1359.00	65028.66
1360.00	64979.51
1361.00	65070.79
1362.00	65050.51
1363.00	65093.42
1364.00	65009.16
1365.00	65076.26
1366.00	65021.64
1367.00	64987.31
1368.00	64857.80
1369.00	64899.15
1370.00	64917.88
1371.00	64941.28
1372.00	64880.43
1373.00	64909.30
1374.00	64942.06
1375.00	64978.73
1376.00	65023.20
1377.00	65006.82
1378.00	65029.44
1379.00	64974.05
1380.00	64981.07
1381.00	65024.76
1382.00	65077.82
1383.00	65178.46
1384.00	65200.30
1385.00	65292.36
1386.00	65284.56
1387.00	65240.09
1388.00	65239.31
1389.00	65184.70
1390.00	65236.19
1391.00	65183.92
1392.00	65215.91
1393.00	65136.33
1394.00	65063.77
1395.00	64988.88
1396.00	64959.23
1397.00	64910.86
1398.00	64880.43
1399.00	64912.42
1400.00	64999.02
1401.00	64998.24
1402.00	65055.97
1403.00	64999.80
1404.00	64996.68
1405.00	64903.06
1406.00	64880.43
1407.00	64884.33
1408.00	64893.69
1409.00	64924.12
1410.00	64903.84
1411.00	64796.95
1412.00	64779.79
1413.00	64816.46
1414.00	64933.48
1415.00	64982.63
1416.00	65024.76
1417.00	65005.26
1418.00	64967.03
1419.00	64937.38
1420.00	65049.73
1421.00	65056.75
1422.00	65162.85
1423.00	64984.19
1424.00	64929.58
1425.00	64740.78
1426.00	64740.78
1427.00	64831.28
1428.00	64853.90
1429.00	64810.99
1430.00	64819.58
1431.00	64858.59
1432.00	65022.42
1433.00	64942.06
1434.00	64886.67
1435.00	64846.88
1436.00	64827.38
1437.00	64889.01
1438.00	64842.98
1439.00	64889.01
1440.00	64871.07
1441.00	64986.53
1442.00	65071.57
1443.00	65080.94
1444.00	65023.20
1445.00	64957.67
1446.00	64889.79
1447.00	64831.28
1448.00	64690.07
1449.00	64694.75
1450.00	64726.74
1451.00	64801.63
1452.00	64829.72
1453.00	64829.72
1454.00	64923.34
1455.00	64935.82
1456.00	64852.34
1457.00	64775.11
1458.00	64913.98
1459.00	65000.58
1460.00	65039.59
1461.00	64864.83
1462.00	64732.20
1463.00	64524.67
1464.00	64528.57
1465.00	64520.77
1466.00	64573.04
1467.00	64511.41
1468.00	64498.92
1469.00	64575.38
1470.00	64628.43
1471.00	64650.28
1472.00	64624.53
1473.00	64644.82
1474.00	64723.61
1475.00	64768.08
1476.00	64768.86
1477.00	64761.84
1478.00	64704.11
1479.00	64649.50
1480.00	64540.27
1481.00	64620.63
1482.00	64636.23
1483.00	64686.95
1484.00	64621.41
1485.00	64507.50
1486.00	64466.16
1487.00	64314.02
1488.00	64260.19
1489.00	64199.33
1490.00	64264.87
1491.00	64370.19
1492.00	64432.61
1493.00	64423.25
1494.00	64397.50
1495.00	64415.44
1496.00	64432.61
1497.00	64369.41
1498.00	64331.96
1499.00	64291.40
1500.00	64377.22
1501.00	64328.84
1502.00	64327.28
1503.00	64230.54
1504.00	64285.93
1505.00	64409.20
1506.00	64551.19
1507.00	64573.04
1508.00	64529.35
1509.00	64509.85
1510.00	64447.43
1511.00	64296.08
1512.00	64110.39
1513.00	64089.33
1514.00	64160.33
1515.00	64236.78
1516.00	64128.34
1517.00	64152.52
1518.00	64154.86
1519.00	64235.22
1520.00	64177.49
1521.00	64136.14
1522.00	64122.10
1523.00	64065.14
1524.00	64053.44
1525.00	64062.02
1526.00	64113.51
1527.00	64086.99
1528.00	64074.51
1529.00	63956.70
1530.00	63914.57
1531.00	63847.47
1532.00	63942.66
1533.00	64046.42
1534.00	64107.27
1535.00	64126.00
1536.00	64125.22
1537.00	64108.05
1538.00	64067.48
1539.00	64012.87
1540.00	64000.39
1541.00	64039.40
1542.00	64084.65
1543.00	64097.13
1544.00	64122.10
1545.00	64107.27
1546.00	64095.57
1547.00	64035.50
1548.00	64038.62
1549.00	64019.11
1550.00	64001.17
1551.00	63969.18
1552.00	63955.14
1553.00	63976.98
1554.00	63984.01
1555.00	63913.79
1556.00	63895.84
1557.00	63790.52
1558.00	63867.76
1559.00	63845.13
1560.00	63891.94
1561.00	63870.10
1562.00	63934.07
1563.00	63960.60
1564.00	63962.16
1565.00	63882.58
1566.00	63901.31
1567.00	63958.26
1568.00	63998.83
1569.00	63892.72
1570.00	63818.61
1571.00	63741.37
1572.00	63672.71
1573.00	63600.94
1574.00	63553.35
1575.00	63632.14
1576.00	63573.63
1577.00	63497.95
1578.00	63445.68
1579.00	63442.56
1580.00	63498.73
1581.00	63451.14
1582.00	63534.62
1583.00	63551.79
1584.00	63651.65
1585.00	63579.09
1586.00	63511.22
1587.00	63320.07
1588.00	63348.16
1589.00	63408.23
1590.00	63517.46
1591.00	63433.20
1592.00	63358.30
1593.00	63293.55
1594.00	63341.92
1595.00	63294.33
1596.00	63401.99
1597.00	63424.62
1598.00	63499.51
1599.00	63432.42
1600.00	63448.80
1601.00	63398.09
1602.00	63366.10
1603.00	63222.55
1604.00	63251.42
1605.00	63296.67
1606.00	63377.03
1607.00	63338.02
1608.00	63233.47
1609.00	63160.92
1610.00	63139.07
1611.00	63231.13
1612.00	63269.36
1613.00	63358.30
1614.00	63323.19
1615.00	63360.64
1616.00	63327.09
1617.00	63318.51
1618.00	63284.18
1619.00	63250.64
1620.00	63230.35
1621.00	63260.00
1622.00	63238.15
1623.00	63177.30
1624.00	63181.20
1625.00	63268.58
1626.00	63411.35
1627.00	63286.53
1628.00	63180.42
1629.00	63153.11
1630.00	63332.56
1631.00	63471.43
1632.00	63411.35
1633.00	63352.84
1634.00	63235.81
1635.00	63269.36
1636.00	63199.15
1637.00	63114.11
1638.00	62995.52
1639.00	62892.54
1640.00	62869.13
1641.00	62855.09
1642.00	62954.95
1643.00	63052.47
1644.00	63063.39
1645.00	63018.92
1646.00	62965.09
1647.00	62883.17
1648.00	62883.95
1649.00	62873.03
1650.00	62910.48
1651.00	62722.46
1652.00	62635.86
1653.00	62636.64
1654.00	62720.12
1655.00	62731.04
1656.00	62711.53
1657.00	62762.25
1658.00	62841.04
1659.00	62943.25
1660.00	63025.17
1661.00	63055.59
1662.00	63085.24
1663.00	63022.04
1664.00	62986.16
1665.00	62922.96
1666.00	62899.56
1667.00	62864.45
1668.00	62839.48
1669.00	62809.84
1670.00	62844.16
1671.00	62846.50
1672.00	62908.92
1673.00	62936.23
1674.00	62990.06
1675.00	62944.81
1676.00	62824.66
1677.00	62701.39
1678.00	62628.05
1679.00	62610.89
1680.00	62548.48
1681.00	62560.96
1682.00	62573.44
1683.00	62609.33
1684.00	62577.34
1685.00	62546.92
1686.00	62493.08
1687.00	62440.81
1688.00	62353.43
1689.00	62312.86
1690.00	62305.84
1691.00	62315.20
1692.00	62326.91
1693.00	62386.20
1694.00	62449.39
1695.00	62558.62
1696.00	62521.95
1697.00	62575.00
1698.00	62477.48
1699.00	62388.54
1700.00	62230.16
1701.00	62134.98
1702.00	62165.41
1703.00	62142.78
1704.00	62109.24
1705.00	62120.94
1706.00	62092.07
1707.00	62065.55
1708.00	61881.42
1709.00	61874.40
1710.00	61939.94
1711.00	62063.99
1712.00	62099.87
1713.00	62168.53
1714.00	62108.46
1715.00	62131.08
1716.00	61939.94
1717.00	61860.36
1718.00	61671.56
1719.00	61652.05
1720.00	61731.63
1721.00	61730.07
1722.00	61765.18
1723.00	61780.00
1724.00	61805.75
1725.00	61675.46
1726.00	61449.20
1727.00	61354.02
1728.00	61386.01
1729.00	61520.98
1730.00	61588.08
1731.00	61593.54
1732.00	61641.13
1733.00	61646.59
1734.00	61687.16
1735.00	61646.59
1736.00	61563.89
1737.00	61570.13
1738.00	61410.20
1739.00	61420.34
1740.00	61342.32
1741.00	61354.02
1742.00	61347.00
1743.00	61194.09
1744.00	61142.59
1745.00	61028.69
1746.00	61144.94
1747.00	61129.33
1748.00	61189.41
1749.00	61042.73
1750.00	61039.61
1751.00	60920.24
1752.00	60871.09
1753.00	60793.85
1754.00	60692.43
1755.00	60644.06
1756.00	60548.88
1757.00	60516.89
1758.00	60416.25
1759.00	60440.43
1760.00	60382.70
1761.00	60488.02
1762.00	60374.90
1763.00	60278.16
1764.00	60119.78
1765.00	60083.11
1766.00	60182.19
1767.00	60186.88
1768.00	60136.94
1769.00	60067.51
1770.00	60145.53
1771.00	60169.71
1772.00	60114.32
1773.00	60081.55
1774.00	60048.78
1775.00	60030.84
1776.00	59907.57
1777.00	59910.69
1778.00	59825.65
1779.00	59863.10
1780.00	59725.79
1781.00	59749.20
1782.00	59689.90
1783.00	59661.82
1784.00	59617.35
1785.00	59608.76
1786.00	59551.03
1787.00	59494.08
1788.00	59341.16
1789.00	59397.34
1790.00	59375.49
1791.00	59356.77
1792.00	59259.24
1793.00	59128.95
1794.00	59027.53
1795.00	58959.66
1796.00	58904.26
1797.00	58900.36
1798.00	58938.59
1799.00	58968.24
1800.00	58842.63
1801.00	58695.17
1802.00	58766.17
1803.00	58804.40
1804.00	58777.87
1805.00	58550.06
1806.00	58450.20
1807.00	58377.64
1808.00	58234.87
1809.00	58119.40
1810.00	58040.60
1811.00	58017.20
1812.00	57893.93
1813.00	57701.23
1814.00	57609.17
1815.00	57566.26
1816.00	57435.97
1817.00	57388.38
1818.00	57201.91
1819.00	57150.42
1820.00	57088.79
1821.00	57110.63
1822.00	57116.87
1823.00	56948.35
1824.00	56956.16
1825.00	56988.92
1826.00	57105.17
1827.00	57140.28
1828.00	57063.82
1829.00	56918.71
1830.00	56551.24
1831.00	56442.80
1832.00	56328.89
1833.00	56337.47
1834.00	56030.86
1835.00	55901.36
1836.00	55625.95
1837.00	55757.02
1838.00	55601.77
1839.00	55640.78
1840.00	55425.45
1841.00	55457.43
1842.00	55602.55
1843.00	55572.12
1844.00	55508.93
1845.00	55351.33
1846.00	55235.08
1847.00	54986.99
1848.00	54766.98
1849.00	54545.40
1850.00	54414.33
1851.00	54206.81
1852.00	54256.74
1853.00	54323.83
1854.00	54312.13
1855.00	54046.87
1856.00	53812.04
1857.00	53802.67
1858.00	53945.45
1859.00	53880.69
1860.00	53633.38
1861.00	53262.79
1862.00	53053.70
1863.00	52912.49
1864.00	52853.20
1865.00	52818.87
1866.00	52694.82
1867.00	52593.40
1868.00	52403.81
1869.00	52294.59
1870.00	52140.11
1871.00	52038.69
1872.00	52030.11
1873.00	51993.44
1874.00	51860.81
1875.00	51677.47
1876.00	51468.38
1877.00	51364.62
1878.00	51210.14
1879.00	50958.92
1880.00	50856.72
1881.00	50681.18
1882.00	50607.06
1883.00	50331.66
1884.00	50274.71
1885.00	50158.46
1886.00	50212.29
1887.00	50000.86
1888.00	49847.17
1889.00	49523.40
1890.00	49338.49
1891.00	49287.78
1892.00	49278.42
1893.00	49435.24
1894.00	49443.04
1895.00	49454.74
1896.00	49322.89
1897.00	49130.19
1898.00	48876.63
1899.00	48503.70
1900.00	48286.03
1901.00	47966.94
1902.00	47799.98
1903.00	47639.26
1904.00	47605.72
1905.00	47503.51
1906.00	47325.63
1907.00	47072.07
1908.00	47068.95
1909.00	46870.79
1910.00	46868.45
1911.00	46437.79
1912.00	46278.63
1913.00	46016.49
1914.00	45938.47
1915.00	45987.63
1916.00	45950.18
1917.00	45702.08
1918.00	45152.83
1919.00	44759.62
1920.00	44471.74
1921.00	44438.19
1922.00	44288.40
1923.00	44296.20
1924.00	44079.31
1925.00	43883.48
1926.00	43590.92
1927.00	43212.53
1928.00	42916.06
1929.00	42692.93
1930.00	42536.12
1931.00	42318.45
1932.00	42094.53
1933.00	42093.75
1934.00	41992.33
1935.00	41906.51
1936.00	41709.91
1937.00	41531.25
1938.00	41345.56
1939.00	41100.59
1940.00	40766.67
1941.00	40544.32
1942.00	40194.02
1943.00	40101.96
1944.00	39723.57
1945.00	39561.30
1946.00	39308.52
1947.00	39070.56
1948.00	39029.21
1949.00	39015.95
1950.00	38987.08
1951.00	38897.36
1952.00	38601.68
1953.00	38439.40
1954.00	38073.49
1955.00	37888.59
1956.00	37561.70
1957.00	37294.10
1958.00	36992.95
1959.00	36679.32
1960.00	36402.35
1961.00	36137.09
1962.00	35971.69
1963.00	35726.72
1964.00	35692.39
1965.00	35658.06
1966.00	35480.96
1967.00	34942.64
1968.00	34696.88
1969.00	34373.11
1970.00	34184.30
1971.00	33793.43
1972.00	33652.22
1973.00	33542.22
1974.00	33483.70
1975.00	33184.90
1976.00	32996.87
1977.00	32730.05
1978.00	32600.54
1979.00	32444.51
1980.00	32219.81
1981.00	31965.48
1982.00	31540.28
1983.00	31227.43
1984.00	31144.73
1985.00	31126.00
1986.00	31098.70
1987.00	30794.43
1988.00	30448.03
1989.00	30103.19
1990.00	30070.42
1991.00	30029.07
1992.00	29720.90
1993.00	29269.18
1994.00	28871.29
1995.00	28838.52
1996.00	28687.95
1997.00	28685.61
1998.00	28544.39
1999.00	28377.44
2000.00	28052.88
2001.00	27743.93
2002.00	27707.26
2003.00	27508.32
2004.00	27313.27
2005.00	26863.89
2006.00	26642.32
2007.00	26518.27
2008.00	26398.90
2009.00	26185.13
2010.00	25862.92
2011.00	25608.58
2012.00	25453.33
2013.00	25347.22
2014.00	25182.60
2015.00	25092.88
2016.00	25021.11
2017.00	25017.99
2018.00	24881.46
2019.00	24647.40
2020.00	24410.23
2021.00	24162.13
2022.00	23953.82
2023.00	23739.27
2024.00	23715.87
2025.00	23431.10
2026.00	23166.62
2027.00	22869.37
2028.00	22869.37
2029.00	22872.50
2030.00	22778.87
2031.00	22599.43
2032.00	22425.45
2033.00	22307.65
2034.00	22054.09
2035.00	21897.27
2036.00	21562.58
2037.00	21314.48
2038.00	21004.75
2039.00	20794.88
2040.00	20690.34
2041.00	20576.43
2042.00	20537.42
2043.00	20441.46
2044.00	20322.87
2045.00	20162.94
2046.00	19987.39
2047.00	19819.66
>>>>>End Processed Spectral Data<<<<<
