SpectraSuite Data File
++++++++++++++++++++++++++++++++++++
Date: Thu Nov 16 14:10:43 EST 2017
User: cheriyan
Dark Spectrum Present: No
Reference Spectrum Present: No
Number of Sampled Component Spectra: 1
Spectrometers: USB2+H05261
Integration Time (usec): 100000 (USB2+H05261)
Spectra Averaged: 1 (USB2+H05261)
Boxcar Smoothing: 1 (USB2+H05261)
Correct for Electrical Dark: No (USB2+H05261)
Strobe/Lamp Enabled: No (USB2+H05261)
Correct for Detector Non-linearity: No (USB2+H05261)
Correct for Stray Light: No (USB2+H05261)
Number of Pixels in Processed Spectrum: 2048
>>>>>Begin Processed Spectral Data<<<<<
0.00	372.15
1.00	372.15
2.00	334.70
3.00	294.13
4.00	235.61
5.00	221.57
6.00	200.51
7.00	225.47
8.00	218.45
9.00	237.17
10.00	228.59
11.00	201.29
12.00	193.48
13.00	179.44
14.00	209.09
15.00	200.51
16.00	227.03
17.00	237.17
18.00	259.80
19.00	262.92
20.00	288.67
21.00	275.40
22.00	269.94
23.00	298.81
24.00	429.10
25.00	537.54
26.00	606.20
27.00	617.12
28.00	608.54
29.00	630.38
30.00	660.81
31.00	690.46
32.00	683.44
33.00	650.67
34.00	650.67
35.00	660.03
36.00	679.54
37.00	690.46
38.00	715.42
39.00	709.18
40.00	729.47
41.00	726.35
42.00	763.79
43.00	764.58
44.00	773.16
45.00	762.23
46.00	738.05
47.00	722.45
48.00	734.93
49.00	766.14
50.00	791.88
51.00	784.86
52.00	789.54
53.00	787.98
54.00	794.22
55.00	790.32
56.00	800.46
57.00	802.02
58.00	802.02
59.00	826.99
60.00	805.14
61.00	791.88
62.00	746.63
63.00	746.63
64.00	760.67
65.00	766.14
66.00	807.48
67.00	844.93
68.00	860.54
69.00	848.05
70.00	817.63
71.00	802.02
72.00	794.22
73.00	817.63
74.00	821.53
75.00	845.71
76.00	826.99
77.00	837.91
78.00	849.61
79.00	862.88
80.00	901.11
81.00	892.52
82.00	890.96
83.00	854.30
84.00	852.74
85.00	852.74
86.00	880.82
87.00	895.65
88.00	906.57
89.00	890.96
90.00	879.26
91.00	894.86
92.00	893.30
93.00	869.90
94.00	848.05
95.00	876.92
96.00	895.64
97.00	898.77
98.00	856.64
99.00	866.00
100.00	893.30
101.00	886.28
102.00	905.01
103.00	905.01
104.00	936.99
105.00	930.75
106.00	933.09
107.00	975.22
108.00	1000.97
109.00	1000.97
110.00	998.63
111.00	1003.31
112.00	1006.43
113.00	993.17
114.00	953.38
115.00	940.90
116.00	929.19
117.00	993.95
118.00	1039.98
119.00	1070.40
120.00	1068.84
121.00	1052.46
122.00	1077.43
123.00	1060.26
124.00	1080.55
125.00	1089.13
126.00	1075.87
127.00	1048.56
128.00	1030.62
129.00	1071.97
130.00	1089.91
131.00	1089.91
132.00	1093.81
133.00	1109.41
134.00	1100.05
135.00	1121.90
136.00	1127.36
137.00	1191.33
138.00	1175.73
139.00	1188.21
140.00	1128.14
141.00	1107.07
142.00	1088.35
143.00	1113.31
144.00	1123.46
145.00	1125.80
146.00	1140.62
147.00	1164.03
148.00	1210.84
149.00	1195.23
150.00	1181.97
151.00	1152.32
152.00	1183.53
153.00	1194.45
154.00	1244.38
155.00	1229.56
156.00	1238.92
157.00	1234.24
158.00	1246.73
159.00	1249.85
160.00	1241.26
161.00	1259.21
162.00	1274.03
163.00	1302.90
164.00	1303.68
165.00	1307.58
166.00	1280.27
167.00	1257.65
168.00	1293.54
169.00	1306.80
170.00	1337.23
171.00	1298.22
172.00	1302.90
173.00	1342.69
174.00	1377.02
175.00	1375.45
176.00	1362.19
177.00	1377.80
178.00	1419.14
179.00	1433.97
180.00	1441.77
181.00	1439.43
182.00	1452.69
183.00	1416.02
184.00	1416.02
185.00	1399.64
186.00	1433.97
187.00	1440.21
188.00	1477.66
189.00	1448.79
190.00	1425.39
191.00	1377.02
192.00	1430.85
193.00	1448.79
194.00	1480.00
195.00	1461.27
196.00	1485.46
197.00	1495.60
198.00	1527.59
199.00	1527.59
200.00	1533.83
201.00	1536.17
202.00	1551.00
203.00	1540.85
204.00	1561.14
205.00	1572.84
206.00	1608.73
207.00	1569.72
208.00	1578.30
209.00	1607.17
210.00	1664.12
211.00	1671.14
212.00	1653.98
213.00	1618.09
214.00	1598.59
215.00	1601.71
216.00	1639.16
217.00	1680.50
218.00	1707.03
219.00	1670.36
220.00	1662.56
221.00	1661.00
222.00	1690.65
223.00	1728.10
224.00	1748.38
225.00	1772.57
226.00	1753.06
227.00	1746.82
228.00	1761.64
229.00	1765.54
230.00	1771.01
231.00	1761.64
232.00	1795.97
233.00	1795.19
234.00	1830.30
235.00	1852.92
236.00	1854.48
237.00	1865.41
238.00	1839.66
239.00	1888.81
240.00	1909.88
241.00	1932.50
242.00	1943.42
243.00	1963.71
244.00	1985.55
245.00	1970.73
246.00	1988.68
247.00	2029.24
248.00	2058.89
249.00	2075.28
250.00	2046.41
251.00	2058.11
252.00	2045.63
253.00	2075.28
254.00	2118.96
255.00	2107.26
256.00	2118.18
257.00	2050.31
258.00	2104.14
259.00	2101.80
260.00	2163.44
261.00	2140.81
262.00	2183.72
263.00	2193.08
264.00	2218.05
265.00	2222.73
266.00	2232.87
267.00	2253.16
268.00	2234.43
269.00	2250.82
270.00	2257.06
271.00	2278.90
272.00	2335.85
273.00	2351.46
274.00	2377.20
275.00	2361.60
276.00	2400.61
277.00	2370.18
278.00	2367.84
279.00	2366.28
280.00	2439.62
281.00	2461.46
282.00	2462.24
283.00	2464.58
284.00	2446.64
285.00	2491.11
286.00	2460.68
287.00	2506.71
288.00	2466.92
289.00	2516.08
290.00	2527.00
291.00	2541.04
292.00	2526.22
293.00	2564.45
294.00	2623.74
295.00	2609.70
296.00	2565.23
297.00	2512.96
298.00	2543.38
299.00	2537.92
300.00	2586.29
301.00	2591.75
302.00	2615.16
303.00	2624.52
304.00	2659.63
305.00	2693.96
306.00	2684.59
307.00	2691.62
308.00	2668.21
309.00	2655.73
310.00	2626.86
311.00	2671.33
312.00	2698.64
313.00	2730.62
314.00	2689.28
315.00	2703.32
316.00	2703.32
317.00	2725.16
318.00	2727.50
319.00	2749.35
320.00	2791.48
321.00	2779.00
322.00	2772.75
323.00	2793.82
324.00	2829.71
325.00	2832.83
326.00	2855.45
327.00	2907.73
328.00	2968.58
329.00	2957.66
330.00	2942.05
331.00	2971.70
332.00	2970.92
333.00	3006.81
334.00	3026.31
335.00	3091.85
336.00	3103.55
337.00	3093.41
338.00	3067.66
339.00	3054.40
340.00	3057.52
341.00	3081.71
342.00	3077.02
343.00	3087.95
344.00	3101.21
345.00	3142.56
346.00	3179.23
347.00	3190.93
348.00	3201.07
349.00	3201.07
350.00	3250.22
351.00	3260.37
352.00	3318.88
353.00	3305.62
354.00	3344.63
355.00	3286.89
356.00	3277.53
357.00	3297.81
358.00	3331.36
359.00	3387.54
360.00	3417.18
361.00	3467.89
362.00	3455.41
363.00	3452.29
364.00	3404.70
365.00	3414.06
366.00	3388.32
367.00	3417.18
368.00	3492.86
369.00	3547.47
370.00	3590.38
371.00	3510.02
372.00	3511.58
373.00	3493.64
374.00	3513.92
375.00	3516.26
376.00	3561.52
377.00	3567.76
378.00	3616.91
379.00	3612.23
380.00	3703.51
381.00	3694.15
382.00	3757.34
383.00	3749.54
384.00	3806.49
385.00	3815.07
386.00	3837.70
387.00	3823.66
388.00	3879.05
389.00	3907.13
390.00	3955.51
391.00	3934.44
392.00	3895.43
393.00	3910.25
394.00	3964.09
395.00	4069.41
396.00	4099.06
397.00	4138.85
398.00	4153.67
399.00	4182.54
400.00	4163.81
401.00	4210.62
402.00	4222.33
403.00	4301.12
404.00	4301.90
405.00	4352.62
406.00	4287.86
407.00	4305.03
408.00	4219.99
409.00	4284.74
410.00	4315.17
411.00	4401.77
412.00	4408.01
413.00	4385.38
414.00	4390.84
415.00	4403.33
416.00	4446.24
417.00	4477.44
418.00	4471.98
419.00	4487.59
420.00	4496.17
421.00	4524.26
422.00	4485.25
423.00	4510.21
424.00	4498.51
425.00	4523.48
426.00	4497.73
427.00	4536.74
428.00	4539.08
429.00	4530.50
430.00	4519.57
431.00	4558.58
432.00	4560.14
433.00	4534.40
434.00	4572.63
435.00	4634.26
436.00	4753.63
437.00	4823.84
438.00	4872.22
439.00	4835.55
440.00	4798.10
441.00	4828.53
442.00	4845.69
443.00	4850.37
444.00	4837.11
445.00	4870.65
446.00	4809.02
447.00	4864.41
448.00	4838.67
449.00	4908.88
450.00	4829.31
451.00	4900.30
452.00	4917.47
453.00	4986.12
454.00	4986.90
455.00	5054.78
456.00	5096.91
457.00	5089.88
458.00	5084.42
459.00	5057.90
460.00	5124.99
461.00	5100.81
462.00	5178.05
463.00	5220.17
464.00	5334.86
465.00	5359.83
466.00	5406.64
467.00	5411.32
468.00	5399.62
469.00	5381.67
470.00	5425.36
471.00	5437.84
472.00	5394.15
473.00	5416.78
474.00	5526.00
475.00	5582.96
476.00	5607.92
477.00	5643.03
478.00	5707.79
479.00	5696.08
480.00	5684.38
481.00	5731.97
482.00	5749.14
483.00	5738.21
484.00	5740.55
485.00	5780.34
486.00	5788.14
487.00	5796.73
488.00	5805.31
489.00	5908.29
490.00	5916.87
491.00	5969.15
492.00	5934.82
493.00	6008.94
494.00	6009.72
495.00	6035.46
496.00	6052.63
497.00	6089.29
498.00	6133.76
499.00	6132.98
500.00	6120.50
501.00	6129.86
502.00	6162.63
503.00	6232.07
504.00	6282.78
505.00	6314.77
506.00	6370.16
507.00	6357.68
508.00	6402.93
509.00	6390.44
510.00	6410.73
511.00	6407.61
512.00	6379.52
513.00	6436.47
514.00	6472.36
515.00	6579.25
516.00	6567.54
517.00	6637.76
518.00	6605.77
519.00	6639.32
520.00	6582.37
521.00	6577.69
522.00	6633.86
523.00	6663.51
524.00	6688.47
525.00	6700.95
526.00	6669.75
527.00	6733.72
528.00	6735.28
529.00	6787.55
530.00	6829.68
531.00	6807.06
532.00	6856.21
533.00	6835.14
534.00	6825.00
535.00	6875.71
536.00	6871.81
537.00	6882.74
538.00	6860.11
539.00	6919.40
540.00	7016.93
541.00	7108.21
542.00	7126.15
543.00	7176.86
544.00	7146.44
545.00	7233.04
546.00	7268.14
547.00	7375.03
548.00	7402.33
549.00	7451.49
550.00	7388.29
551.00	7365.67
552.00	7350.84
553.00	7364.89
554.00	7431.98
555.00	7451.49
556.00	7517.02
557.00	7528.72
558.00	7566.17
559.00	7584.90
560.00	7595.04
561.00	7702.70
562.00	7728.45
563.00	7808.81
564.00	7778.38
565.00	7939.10
566.00	8037.40
567.00	8051.44
568.00	8070.17
569.00	8044.42
570.00	8168.47
571.00	8251.17
572.00	8318.26
573.00	8283.16
574.00	8267.55
575.00	8306.56
576.00	8449.33
577.00	8473.52
578.00	8562.46
579.00	8618.63
580.00	8680.27
581.00	8705.23
582.00	8780.91
583.00	8857.37
584.00	8908.08
585.00	8932.26
586.00	9021.98
587.00	8938.51
588.00	8936.95
589.00	8923.68
590.00	9130.43
591.00	9231.07
592.00	9430.80
593.00	9560.31
594.00	9663.29
595.00	9646.13
596.00	9735.07
597.00	9792.80
598.00	9939.48
599.00	9965.22
600.00	10051.82
601.00	10020.61
602.00	10099.41
603.00	10148.56
604.00	10260.91
605.00	10391.20
606.00	10474.68
607.00	10580.78
608.00	10666.60
609.00	10743.06
610.00	10722.77
611.00	10696.25
612.00	10738.38
613.00	10831.22
614.00	10872.57
615.00	10956.83
616.00	11112.86
617.00	11317.27
618.00	11459.26
619.00	11542.74
620.00	11592.67
621.00	11714.38
622.00	11800.20
623.00	11958.58
624.00	12046.74
625.00	12131.00
626.00	12132.56
627.00	12218.38
628.00	12329.16
629.00	12510.16
630.00	12622.51
631.00	12697.41
632.00	12640.45
633.00	12800.39
634.00	12914.30
635.00	13046.15
636.00	13030.54
637.00	13190.48
638.00	13359.00
639.00	13477.58
640.00	13491.63
641.00	13567.31
642.00	13596.17
643.00	13674.19
644.00	13735.04
645.00	13938.67
646.00	13987.82
647.00	14103.29
648.00	14123.57
649.00	14299.11
650.00	14386.49
651.00	14538.63
652.00	14616.65
653.00	14693.10
654.00	14741.47
655.00	14870.98
656.00	14995.03
657.00	15125.32
658.00	15207.24
659.00	15444.41
660.00	15595.77
661.00	15658.18
662.00	15605.91
663.00	15697.97
664.00	15768.97
665.00	15857.91
666.00	15899.26
667.00	16063.10
668.00	16218.35
669.00	16316.65
670.00	16389.21
671.00	16443.82
672.00	16528.08
673.00	16638.09
674.00	16739.51
675.00	16878.38
676.00	16947.82
677.00	17050.02
678.00	17031.30
679.00	17235.70
680.00	17504.09
681.00	17716.30
682.00	17791.19
683.00	17784.95
684.00	18030.71
685.00	18192.20
686.00	18267.10
687.00	18278.80
688.00	18303.77
689.00	18459.02
690.00	18636.91
691.00	18797.62
692.00	18987.99
693.00	19009.83
694.00	19051.18
695.00	19133.88
696.00	19222.04
697.00	19374.95
698.00	19431.13
699.00	19426.45
700.00	19434.25
701.00	19501.34
702.00	19600.43
703.00	19722.91
704.00	19797.03
705.00	19945.27
706.00	20108.32
707.00	20230.03
708.00	20336.13
709.00	20515.58
710.00	20705.16
711.00	20914.25
712.00	20995.39
713.00	21069.50
714.00	21163.12
715.00	21243.48
716.00	21293.41
717.00	21541.51
718.00	21616.41
719.00	21719.39
720.00	21593.78
721.00	21590.66
722.00	21530.59
723.00	21649.96
724.00	21845.00
725.00	22022.10
726.00	22043.95
727.00	22099.34
728.00	22149.27
729.00	22338.07
730.00	22395.81
731.00	22402.83
732.00	22446.52
733.00	22475.38
734.00	22593.97
735.00	22706.32
736.00	22728.16
737.00	22886.54
738.00	22856.89
739.00	23050.38
740.00	23121.37
741.00	23311.74
742.00	23408.48
743.00	23524.72
744.00	23431.88
745.00	23551.25
746.00	23604.30
747.00	23801.69
748.00	23854.74
749.00	23854.74
750.00	23880.49
751.00	23792.33
752.00	23967.09
753.00	23956.94
754.00	24140.29
755.00	24181.63
756.00	24270.58
757.00	24290.86
758.00	24499.17
759.00	24645.84
760.00	24810.46
761.00	24867.41
762.00	25053.09
763.00	25163.10
764.00	25195.09
765.00	25273.10
766.00	25397.15
767.00	25406.52
768.00	25461.91
769.00	25422.90
770.00	25672.56
771.00	25725.61
772.00	26020.52
773.00	26040.80
774.00	26200.74
775.00	26100.87
776.00	26201.52
777.00	26224.14
778.00	26355.99
779.00	26331.81
780.00	26299.04
781.00	26313.86
782.00	26551.04
783.00	26844.38
784.00	26977.79
785.00	27018.36
786.00	27145.53
787.00	27325.75
788.00	27455.26
789.00	27534.84
790.00	27654.21
791.00	27760.31
792.00	27725.99
793.00	27561.37
794.00	27527.04
795.00	27621.44
796.00	27869.54
797.00	27973.30
798.00	28144.16
799.00	28249.49
800.00	28317.36
801.00	28233.88
802.00	28201.11
803.00	28357.15
804.00	28402.40
805.00	28648.94
806.00	28722.27
807.00	28835.40
808.00	28747.24
809.00	28737.88
810.00	28921.22
811.00	29180.24
812.00	29348.76
813.00	29555.50
814.00	29716.22
815.00	29976.80
816.00	30009.57
817.00	30022.83
818.00	29898.78
819.00	29899.56
820.00	29993.18
821.00	30078.22
822.00	30237.38
823.00	30281.85
824.00	30224.12
825.00	30132.84
826.00	30124.26
827.00	30322.42
828.00	30560.37
829.00	30726.55
830.00	30884.93
831.00	30936.42
832.00	31083.09
833.00	30999.62
834.00	31159.55
835.00	31120.54
836.00	31385.02
837.00	31480.21
838.00	31622.20
839.00	31631.56
840.00	31580.85
841.00	31509.07
842.00	31516.09
843.00	31664.33
844.00	31942.07
845.00	32117.61
846.00	32294.71
847.00	32387.55
848.00	32574.02
849.00	32658.28
850.00	32613.80
851.00	32599.76
852.00	32318.12
853.00	32212.79
854.00	32223.72
855.00	32586.50
856.00	32897.01
857.00	33028.86
858.00	33000.77
859.00	32812.75
860.00	32843.18
861.00	32904.03
862.00	33159.15
863.00	33340.93
864.00	33448.60
865.00	33532.08
866.00	33540.66
867.00	33736.48
868.00	33843.37
869.00	34103.95
870.00	34313.81
871.00	34588.44
872.00	34469.85
873.00	34509.64
874.00	34391.83
875.00	34443.32
876.00	34356.72
877.00	34575.95
878.00	34808.45
879.00	34886.47
880.00	34834.19
881.00	34704.68
882.00	34579.85
883.00	34610.28
884.00	34637.59
885.00	34472.97
886.00	34430.84
887.00	34497.16
888.00	34982.43
889.00	35038.60
890.00	35189.95
891.00	35242.23
892.00	35508.27
893.00	35536.35
894.00	35487.98
895.00	35523.09
896.00	35666.64
897.00	35791.47
898.00	35793.03
899.00	35881.19
900.00	36034.11
901.00	36328.23
902.00	36393.77
903.00	36561.51
904.00	36640.31
905.00	36894.64
906.00	36868.90
907.00	36673.85
908.00	36322.77
909.00	36583.35
910.00	36614.56
911.00	36644.21
912.00	36301.71
913.00	36325.89
914.00	36422.64
915.00	36620.02
916.00	36734.71
917.00	36848.61
918.00	36993.73
919.00	37046.78
920.00	37092.81
921.00	37054.58
922.00	37205.94
923.00	37342.47
924.00	37371.33
925.00	37415.80
926.00	37507.86
927.00	37439.21
928.00	37356.51
929.00	37557.80
930.00	37858.17
931.00	38041.51
932.00	38013.42
933.00	38011.08
934.00	38012.64
935.00	37844.90
936.00	38009.52
937.00	38263.86
938.00	38343.44
939.00	38293.50
940.00	38116.40
941.00	38199.88
942.00	38199.10
943.00	38324.71
944.00	38487.77
945.00	38494.79
946.00	38558.77
947.00	38495.57
948.00	38690.62
949.00	38633.66
950.00	38768.63
951.00	38724.16
952.00	38575.93
953.00	38504.15
954.00	38472.95
955.00	38731.19
956.00	38963.68
957.00	39271.85
958.00	39536.33
959.00	39761.02
960.00	39732.93
961.00	39676.76
962.00	39592.50
963.00	39638.53
964.00	39885.85
965.00	40094.94
966.00	40351.62
967.00	40379.70
968.00	40402.33
969.00	40346.15
970.00	40493.61
971.00	40672.27
972.00	40752.63
973.00	40637.16
974.00	40584.89
975.00	40705.04
976.00	40548.22
977.00	40462.40
978.00	40151.89
979.00	40202.60
980.00	40199.48
981.00	40567.73
982.00	40703.48
983.00	40890.72
984.00	41087.32
985.00	41372.87
986.00	41393.93
987.00	41203.57
988.00	41504.72
989.00	41483.66
990.00	41493.02
991.00	40967.18
992.00	41141.94
993.00	41045.97
994.00	41435.28
995.00	41427.48
996.00	41743.45
997.00	41866.72
998.00	42075.81
999.00	42273.20
1000.00	42256.81
1001.00	42384.76
1002.00	42391.00
1003.00	42414.41
1004.00	42399.58
1005.00	42327.03
1006.00	42400.36
1007.00	42380.08
1008.00	42699.17
1009.00	42821.66
1010.00	42979.26
1011.00	42682.01
1012.00	42613.35
1013.00	42480.72
1014.00	42556.40
1015.00	42529.09
1016.00	42631.30
1017.00	42864.57
1018.00	43208.63
1019.00	43363.11
1020.00	43271.82
1021.00	43151.68
1022.00	43058.06
1023.00	43175.86
1024.00	43159.48
1025.00	43425.52
1026.00	43644.75
1027.00	43920.15
1028.00	44024.70
1029.00	43892.07
1030.00	43927.95
1031.00	43908.45
1032.00	44075.41
1033.00	44098.03
1034.00	44015.33
1035.00	44031.72
1036.00	44120.66
1037.00	44218.96
1038.00	44375.78
1039.00	44412.45
1040.00	44606.71
1041.00	44666.00
1042.00	44651.18
1043.00	44724.52
1044.00	44792.39
1045.00	44878.21
1046.00	44837.64
1047.00	44638.70
1048.00	44790.83
1049.00	44713.59
1050.00	45068.58
1051.00	45024.11
1052.00	45338.52
1053.00	45262.06
1054.00	45315.89
1055.00	45304.97
1056.00	45358.02
1057.00	45459.45
1058.00	45558.53
1059.00	45613.14
1060.00	45718.46
1061.00	45521.08
1062.00	45688.82
1063.00	45662.29
1064.00	45780.10
1065.00	45702.86
1066.00	45810.53
1067.00	45944.72
1068.00	45946.28
1069.00	45716.90
1070.00	45705.20
1071.00	45697.40
1072.00	45848.75
1073.00	45940.03
1074.00	46206.86
1075.00	46360.55
1076.00	46316.08
1077.00	46346.51
1078.00	46440.91
1079.00	46539.99
1080.00	46394.10
1081.00	46280.19
1082.00	46368.35
1083.00	46396.44
1084.00	46531.41
1085.00	46465.88
1086.00	46677.30
1087.00	46764.68
1088.00	46757.66
1089.00	46807.59
1090.00	46777.17
1091.00	46910.58
1092.00	46983.13
1093.00	47004.98
1094.00	47158.67
1095.00	47240.59
1096.00	47474.65
1097.00	47583.87
1098.00	47479.33
1099.00	47414.57
1100.00	47395.85
1101.00	47515.22
1102.00	47574.51
1103.00	47781.26
1104.00	47848.35
1105.00	48073.04
1106.00	47936.51
1107.00	47935.73
1108.00	47821.83
1109.00	47904.52
1110.00	48002.05
1111.00	47881.12
1112.00	47733.67
1113.00	47588.55
1114.00	47619.76
1115.00	47610.40
1116.00	47634.58
1117.00	47603.38
1118.00	47697.78
1119.00	47744.59
1120.00	47864.74
1121.00	47987.22
1122.00	48044.96
1123.00	48119.07
1124.00	47990.34
1125.00	47856.93
1126.00	47750.83
1127.00	47887.36
1128.00	47934.95
1129.00	47905.30
1130.00	47761.75
1131.00	47954.46
1132.00	48158.08
1133.00	48248.58
1134.00	48176.03
1135.00	48080.84
1136.00	48188.51
1137.00	48198.65
1138.00	48292.27
1139.00	48269.65
1140.00	48293.05
1141.00	48387.46
1142.00	48523.21
1143.00	48596.54
1144.00	48473.27
1145.00	48243.12
1146.00	48407.74
1147.00	48381.99
1148.00	48503.70
1149.00	48451.43
1150.00	48686.26
1151.00	48826.70
1152.00	48915.64
1153.00	48914.86
1154.00	48855.56
1155.00	48701.87
1156.00	48616.83
1157.00	48704.21
1158.00	48738.54
1159.00	48819.67
1160.00	49101.32
1161.00	49313.53
1162.00	49409.49
1163.00	49352.54
1164.00	49341.61
1165.00	49329.91
1166.00	49101.32
1167.00	49037.34
1168.00	49038.90
1169.00	49037.34
1170.00	48946.84
1171.00	48838.40
1172.00	48706.55
1173.00	48857.12
1174.00	48880.53
1175.00	49012.38
1176.00	48841.52
1177.00	48776.76
1178.00	48822.01
1179.00	48859.46
1180.00	49041.24
1181.00	49042.81
1182.00	49248.77
1183.00	49387.64
1184.00	49507.01
1185.00	49527.30
1186.00	49341.61
1187.00	49453.18
1188.00	49368.92
1189.00	49464.88
1190.00	49464.88
1191.00	49638.86
1192.00	49559.28
1193.00	49386.86
1194.00	49216.00
1195.00	49353.32
1196.00	49508.57
1197.00	49559.28
1198.00	49449.28
1199.00	49408.71
1200.00	49402.47
1201.00	49545.24
1202.00	49517.93
1203.00	49611.56
1204.00	49717.66
1205.00	49822.20
1206.00	49950.15
1207.00	49953.27
1208.00	49871.35
1209.00	49734.82
1210.00	49727.80
1211.00	49581.91
1212.00	49667.73
1213.00	49510.91
1214.00	49485.17
1215.00	49303.38
1216.00	49367.36
1217.00	49508.57
1218.00	49425.09
1219.00	49397.79
1220.00	49333.03
1221.00	49393.89
1222.00	49379.06
1223.00	49531.98
1224.00	49445.38
1225.00	49395.45
1226.00	49560.06
1227.00	49714.54
1228.00	49947.81
1229.00	49763.69
1230.00	49953.27
1231.00	49872.92
1232.00	50005.55
1233.00	49871.35
1234.00	49868.23
1235.00	49908.80
1236.00	50086.68
1237.00	50152.22
1238.00	50177.18
1239.00	50141.30
1240.00	50308.25
1241.00	50447.13
1242.00	50612.52
1243.00	50530.61
1244.00	50577.42
1245.00	50532.17
1246.00	50587.56
1247.00	50596.92
1248.00	50616.43
1249.00	50735.01
1250.00	50613.30
1251.00	50634.37
1252.00	50570.39
1253.00	50574.30
1254.00	50503.30
1255.00	50326.20
1256.00	50319.96
1257.00	50264.56
1258.00	50537.63
1259.00	50514.22
1260.00	50673.38
1261.00	50618.77
1262.00	50894.95
1263.00	51056.45
1264.00	51325.61
1265.00	51395.82
1266.00	51316.25
1267.00	51143.05
1268.00	51121.20
1269.00	51192.98
1270.00	51171.13
1271.00	51163.33
1272.00	51190.64
1273.00	51224.18
1274.00	51197.66
1275.00	50998.71
1276.00	51014.32
1277.00	50891.05
1278.00	51012.76
1279.00	50944.88
1280.00	51059.57
1281.00	51310.78
1282.00	51400.50
1283.00	51430.15
1284.00	51241.35
1285.00	51341.21
1286.00	51488.66
1287.00	51601.01
1288.00	51569.02
1289.00	51572.14
1290.00	51580.73
1291.00	51742.22
1292.00	51736.76
1293.00	51817.90
1294.00	51800.74
1295.00	51799.96
1296.00	51745.34
1297.00	51675.91
1298.00	51635.34
1299.00	51531.57
1300.00	51526.11
1301.00	51551.08
1302.00	51683.71
1303.00	51703.99
1304.00	51861.59
1305.00	51911.52
1306.00	51916.20
1307.00	51821.02
1308.00	51778.89
1309.00	51796.84
1310.00	51746.90
1311.00	51775.77
1312.00	51815.56
1313.00	51901.38
1314.00	51940.39
1315.00	52076.92
1316.00	52224.37
1317.00	52392.11
1318.00	52381.19
1319.00	52303.17
1320.00	52237.64
1321.00	52226.71
1322.00	52296.15
1323.00	52283.67
1324.00	52254.02
1325.00	52219.69
1326.00	52345.30
1327.00	52541.91
1328.00	52613.68
1329.00	52758.02
1330.00	52909.37
1331.00	53022.50
1332.00	52713.55
1333.00	52474.81
1334.00	52257.92
1335.00	52267.28
1336.00	52158.84
1337.00	52208.77
1338.00	52147.92
1339.00	52044.93
1340.00	52030.89
1341.00	52147.92
1342.00	52367.93
1343.00	52535.66
1344.00	52577.01
1345.00	52641.77
1346.00	52623.04
1347.00	52752.55
1348.00	52682.34
1349.00	52594.96
1350.00	52337.50
1351.00	52237.64
1352.00	52026.21
1353.00	52177.56
1354.00	52287.57
1355.00	52622.26
1356.00	52664.39
1357.00	52851.64
1358.00	52761.92
1359.00	52822.77
1360.00	52729.93
1361.00	52789.22
1362.00	52725.25
1363.00	52676.88
1364.00	52548.15
1365.00	52628.51
1366.00	52650.35
1367.00	52783.76
1368.00	52844.62
1369.00	52925.75
1370.00	52921.07
1371.00	52830.57
1372.00	52834.47
1373.00	53083.35
1374.00	53268.25
1375.00	53173.85
1376.00	53013.13
1377.00	52727.59
1378.00	52719.01
1379.00	52614.46
1380.00	52719.01
1381.00	52831.35
1382.00	52797.02
1383.00	52673.76
1384.00	52452.97
1385.00	52271.96
1386.00	52168.98
1387.00	52101.89
1388.00	52144.01
1389.00	52060.54
1390.00	52116.71
1391.00	52156.50
1392.00	52417.08
1393.00	52583.26
1394.00	52708.86
1395.00	52736.95
1396.00	52733.05
1397.00	52711.20
1398.00	52666.73
1399.00	52638.65
1400.00	52577.79
1401.00	52443.60
1402.00	52413.18
1403.00	52323.46
1404.00	52449.06
1405.00	52518.50
1406.00	52669.08
1407.00	52722.13
1408.00	52686.24
1409.00	52680.00
1410.00	52743.19
1411.00	52799.36
1412.00	52871.92
1413.00	52861.00
1414.00	52960.08
1415.00	52979.59
1416.00	53079.45
1417.00	53046.68
1418.00	53047.46
1419.00	52896.11
1420.00	52892.21
1421.00	52885.18
1422.00	52871.14
1423.00	52797.02
1424.00	52765.04
1425.00	52967.10
1426.00	52942.92
1427.00	52949.94
1428.00	52706.52
1429.00	52575.45
1430.00	52567.65
1431.00	52526.30
1432.00	52655.03
1433.00	52534.88
1434.00	52477.15
1435.00	52294.59
1436.00	52261.82
1437.00	52269.62
1438.00	52269.62
1439.00	52286.01
1440.00	52274.30
1441.00	52218.91
1442.00	52218.13
1443.00	52051.95
1444.00	52016.85
1445.00	52055.85
1446.00	52303.95
1447.00	52493.53
1448.00	52479.49
1449.00	52456.09
1450.00	52517.72
1451.00	52690.14
1452.00	52757.24
1453.00	52719.79
1454.00	52515.38
1455.00	52538.79
1456.00	52513.04
1457.00	52597.30
1458.00	52560.63
1459.00	52552.83
1460.00	52535.66
1461.00	52373.39
1462.00	52215.79
1463.00	52119.05
1464.00	52218.13
1465.00	52300.05
1466.00	52348.42
1467.00	52346.86
1468.00	52445.94
1469.00	52510.70
1470.00	52610.56
1471.00	52534.88
1472.00	52404.59
1473.00	52244.66
1474.00	52145.58
1475.00	52186.92
1476.00	52186.92
1477.00	52354.66
1478.00	52338.28
1479.00	52262.60
1480.00	52007.48
1481.00	51937.27
1482.00	51954.43
1483.00	51977.84
1484.00	51954.43
1485.00	51845.99
1486.00	51864.71
1487.00	51771.09
1488.00	51814.78
1489.00	51851.45
1490.00	51787.47
1491.00	51826.48
1492.00	51743.78
1493.00	51773.43
1494.00	51782.79
1495.00	51860.81
1496.00	51946.63
1497.00	51986.42
1498.00	52063.66
1499.00	52071.46
1500.00	52135.43
1501.00	52089.40
1502.00	52112.81
1503.00	51951.31
1504.00	51913.08
1505.00	51980.96
1506.00	51970.04
1507.00	51924.78
1508.00	51831.16
1509.00	51769.53
1510.00	51850.67
1511.00	51859.25
1512.00	51882.66
1513.00	51725.06
1514.00	51720.38
1515.00	51648.60
1516.00	51498.03
1517.00	51349.01
1518.00	51326.39
1519.00	51443.41
1520.00	51455.90
1521.00	51478.52
1522.00	51551.08
1523.00	51520.65
1524.00	51469.16
1525.00	51357.59
1526.00	51437.95
1527.00	51481.64
1528.00	51621.30
1529.00	51499.59
1530.00	51509.73
1531.00	51376.32
1532.00	51493.35
1533.00	51462.92
1534.00	51450.44
1535.00	51491.79
1536.00	51677.47
1537.00	51761.73
1538.00	51718.82
1539.00	51643.14
1540.00	51643.14
1541.00	51544.84
1542.00	51595.55
1543.00	51693.07
1544.00	51762.51
1545.00	51731.30
1546.00	51542.50
1547.00	51378.66
1548.00	51269.43
1549.00	51184.40
1550.00	51352.91
1551.00	51498.81
1552.00	51691.51
1553.00	51668.11
1554.00	51538.60
1555.00	51469.16
1556.00	51548.74
1557.00	51422.35
1558.00	51466.04
1559.00	51429.37
1560.00	51485.54
1561.00	51370.86
1562.00	51129.00
1563.00	51088.43
1564.00	50946.44
1565.00	51065.81
1566.00	51018.22
1567.00	51029.14
1568.00	50837.22
1569.00	50721.75
1570.00	50699.90
1571.00	50692.88
1572.00	50599.26
1573.00	50520.46
1574.00	50532.95
1575.00	50602.38
1576.00	50475.99
1577.00	50451.81
1578.00	50487.70
1579.00	50570.39
1580.00	50590.68
1581.00	50668.70
1582.00	50791.19
1583.00	50944.88
1584.00	50916.01
1585.00	50834.88
1586.00	50656.21
1587.00	50561.81
1588.00	50783.38
1589.00	50902.75
1590.00	50943.32
1591.00	50727.21
1592.00	50621.11
1593.00	50472.87
1594.00	50587.56
1595.00	50448.69
1596.00	50612.52
1597.00	50531.39
1598.00	50557.13
1599.00	50394.85
1600.00	50284.07
1601.00	50306.69
1602.00	50525.92
1603.00	50569.61
1604.00	50728.77
1605.00	50528.27
1606.00	50492.38
1607.00	50291.87
1608.00	50279.39
1609.00	50381.59
1610.00	50316.84
1611.00	50220.09
1612.00	50085.90
1613.00	50135.84
1614.00	50140.52
1615.00	50184.99
1616.00	50257.54
1617.00	50587.56
1618.00	50614.08
1619.00	50698.34
1620.00	50653.87
1621.00	50659.34
1622.00	50636.71
1623.00	50560.25
1624.00	50586.00
1625.00	50502.52
1626.00	50270.03
1627.00	50073.42
1628.00	50005.55
1629.00	50128.81
1630.00	50147.54
1631.00	50206.83
1632.00	50266.91
1633.00	50458.05
1634.00	50619.55
1635.00	50570.39
1636.00	50500.18
1637.00	50298.89
1638.00	50171.72
1639.00	50030.51
1640.00	49942.35
1641.00	49938.45
1642.00	49925.19
1643.00	49947.81
1644.00	49972.78
1645.00	49998.52
1646.00	49925.19
1647.00	49776.95
1648.00	49858.09
1649.00	49774.61
1650.00	49859.65
1651.00	49637.30
1652.00	49751.21
1653.00	49858.09
1654.00	49997.74
1655.00	49916.61
1656.00	49702.06
1657.00	49604.53
1658.00	49569.43
1659.00	49635.74
1660.00	49519.49
1661.00	49485.95
1662.00	49407.15
1663.00	49448.50
1664.00	49536.66
1665.00	49567.09
1666.00	49689.57
1667.00	49682.55
1668.00	49724.68
1669.00	49633.40
1670.00	49553.82
1671.00	49432.11
1672.00	49432.11
1673.00	49382.96
1674.00	49371.26
1675.00	49333.03
1676.00	49402.47
1677.00	49421.97
1678.00	49339.27
1679.00	49251.89
1680.00	49160.61
1681.00	49110.68
1682.00	49005.36
1683.00	48818.11
1684.00	48765.06
1685.00	48868.83
1686.00	49059.97
1687.00	49178.56
1688.00	49095.08
1689.00	49152.03
1690.00	48971.03
1691.00	48873.51
1692.00	48541.93
1693.00	48386.67
1694.00	48256.39
1695.00	48285.25
1696.00	48250.92
1697.00	48341.42
1698.00	48471.71
1699.00	48739.32
1700.00	48976.49
1701.00	49024.08
1702.00	49233.95
1703.00	49316.65
1704.00	49227.71
1705.00	49029.54
1706.00	48665.98
1707.00	48538.03
1708.00	48555.97
1709.00	48589.52
1710.00	48693.29
1711.00	48368.73
1712.00	48108.93
1713.00	47824.95
1714.00	47748.49
1715.00	47674.37
1716.00	47883.46
1717.00	47970.84
1718.00	48061.34
1719.00	47901.40
1720.00	47579.97
1721.00	47539.40
1722.00	47697.00
1723.00	48050.42
1724.00	48001.27
1725.00	47808.56
1726.00	47601.04
1727.00	47582.31
1728.00	47356.84
1729.00	47173.50
1730.00	47166.48
1731.00	47104.84
1732.00	47059.59
1733.00	46646.88
1734.00	46650.00
1735.00	46575.88
1736.00	46680.42
1737.00	46447.93
1738.00	46371.47
1739.00	46455.73
1740.00	46485.38
1741.00	46341.05
1742.00	46046.14
1743.00	45861.24
1744.00	45708.32
1745.00	45478.17
1746.00	45539.02
1747.00	45522.64
1748.00	45697.40
1749.00	45613.92
1750.00	45638.11
1751.00	45592.08
1752.00	45401.71
1753.00	45251.92
1754.00	44968.71
1755.00	44929.70
1756.00	44749.48
1757.00	44624.65
1758.00	44408.54
1759.00	44466.28
1760.00	44643.38
1761.00	44577.84
1762.00	44532.59
1763.00	44225.98
1764.00	44200.24
1765.00	44086.33
1766.00	44078.53
1767.00	43959.94
1768.00	43821.85
1769.00	43938.88
1770.00	44113.64
1771.00	44070.73
1772.00	44066.05
1773.00	43995.83
1774.00	44069.17
1775.00	43931.86
1776.00	43833.55
1777.00	43702.48
1778.00	43517.58
1779.00	43444.24
1780.00	43397.43
1781.00	43291.33
1782.00	43035.43
1783.00	42873.93
1784.00	42887.98
1785.00	42909.04
1786.00	42821.66
1787.00	42724.92
1788.00	42430.79
1789.00	42152.27
1790.00	41737.99
1791.00	41812.11
1792.00	41606.14
1793.00	41490.68
1794.00	41077.96
1795.00	40998.38
1796.00	40885.26
1797.00	40922.71
1798.00	40719.86
1799.00	40617.66
1800.00	40285.30
1801.00	40281.40
1802.00	40180.76
1803.00	40027.06
1804.00	39633.07
1805.00	39335.04
1806.00	39151.70
1807.00	39324.90
1808.00	39267.95
1809.00	39312.42
1810.00	39097.09
1811.00	39048.72
1812.00	38934.81
1813.00	38833.39
1814.00	38903.60
1815.00	38891.90
1816.00	38849.77
1817.00	38490.11
1818.00	38261.52
1819.00	37940.08
1820.00	37842.56
1821.00	37555.46
1822.00	37493.04
1823.00	37331.54
1824.00	37393.18
1825.00	37322.18
1826.00	37222.32
1827.00	37125.58
1828.00	37042.10
1829.00	36935.21
1830.00	36400.01
1831.00	36261.14
1832.00	36205.75
1833.00	36378.95
1834.00	36130.07
1835.00	35789.13
1836.00	35331.17
1837.00	35125.20
1838.00	34811.57
1839.00	34588.44
1840.00	34277.15
1841.00	34268.56
1842.00	34296.65
1843.00	34047.77
1844.00	33765.35
1845.00	33543.78
1846.00	33386.96
1847.00	32981.27
1848.00	32828.35
1849.00	32620.05
1850.00	32471.03
1851.00	32068.46
1852.00	32000.58
1853.00	31878.88
1854.00	31908.52
1855.00	31754.05
1856.00	31762.63
1857.00	31660.43
1858.00	31568.37
1859.00	31418.57
1860.00	31248.49
1861.00	31043.31
1862.00	30889.61
1863.00	30969.97
1864.00	30808.47
1865.00	30743.72
1866.00	30305.26
1867.00	30049.36
1868.00	29746.65
1869.00	29449.40
1870.00	29421.31
1871.00	29153.71
1872.00	29190.38
1873.00	28691.85
1874.00	28446.09
1875.00	28134.02
1876.00	28173.81
1877.00	28117.64
1878.00	27802.44
1879.00	27556.69
1880.00	27282.84
1881.00	27112.77
1882.00	26908.36
1883.00	26717.22
1884.00	26623.59
1885.00	26344.29
1886.00	26056.40
1887.00	25908.95
1888.00	25918.31
1889.00	26019.74
1890.00	25912.85
1891.00	25682.70
1892.00	25408.08
1893.00	25135.01
1894.00	25094.44
1895.00	24953.23
1896.00	24934.51
1897.00	24627.90
1898.00	24432.85
1899.00	24261.99
1900.00	24267.45
1901.00	24230.79
1902.00	24061.49
1903.00	23877.37
1904.00	23786.86
1905.00	23708.07
1906.00	23512.24
1907.00	23361.67
1908.00	23146.34
1909.00	23044.13
1910.00	22783.55
1911.00	22582.27
1912.00	22301.40
1913.00	22069.69
1914.00	21923.02
1915.00	21940.18
1916.00	21928.48
1917.00	21796.63
1918.00	21584.42
1919.00	21283.27
1920.00	21021.13
1921.00	20779.28
1922.00	20641.96
1923.00	20666.93
1924.00	20531.96
1925.00	20426.64
1926.00	20149.67
1927.00	20001.44
1928.00	19934.34
1929.00	19822.78
1930.00	19786.89
1931.00	19523.97
1932.00	19411.62
1933.00	19307.86
1934.00	19139.34
1935.00	19089.41
1936.00	18815.57
1937.00	18782.80
1938.00	18614.28
1939.00	18466.83
1940.00	18356.82
1941.00	18272.56
1942.00	18279.58
1943.00	18086.10
1944.00	17915.24
1945.00	17770.13
1946.00	17616.43
1947.00	17442.45
1948.00	17345.71
1949.00	17326.21
1950.00	17197.48
1951.00	17015.69
1952.00	16915.83
1953.00	16860.44
1954.00	16791.78
1955.00	16699.72
1956.00	16536.66
1957.00	16370.49
1958.00	16171.54
1959.00	16099.76
1960.00	15992.10
1961.00	15886.00
1962.00	15719.82
1963.00	15569.24
1964.00	15547.40
1965.00	15469.38
1966.00	15392.14
1967.00	15225.18
1968.00	15215.82
1969.00	15176.81
1970.00	15165.89
1971.00	15031.70
1972.00	14932.62
1973.00	14710.27
1974.00	14556.57
1975.00	14445.79
1976.00	14374.01
1977.00	14275.71
1978.00	14136.06
1979.00	13997.96
1980.00	13913.70
1981.00	13875.48
1982.00	13797.46
1983.00	13671.07
1984.00	13555.60
1985.00	13518.93
1986.00	13518.15
1987.00	13479.15
1988.00	13376.16
1989.00	13216.22
1990.00	13153.81
1991.00	13015.72
1992.00	12917.42
1993.00	12740.32
1994.00	12733.29
1995.00	12717.69
1996.00	12614.71
1997.00	12567.90
1998.00	12467.25
1999.00	12447.75
2000.00	12332.28
2001.00	12246.46
2002.00	12199.65
2003.00	12099.01
2004.00	11968.72
2005.00	11765.09
2006.00	11656.65
2007.00	11660.55
2008.00	11608.28
2009.00	11525.58
2010.00	11460.04
2011.00	11444.44
2012.00	11423.37
2013.00	11289.18
2014.00	11278.26
2015.00	11240.03
2016.00	11239.25
2017.00	11180.74
2018.00	11154.21
2019.00	11080.88
2020.00	11043.43
2021.00	11000.52
2022.00	11009.10
2023.00	10934.98
2024.00	10838.24
2025.00	10717.31
2026.00	10570.64
2027.00	10449.71
2028.00	10386.52
2029.00	10416.16
2030.00	10344.39
2031.00	10331.90
2032.00	10210.98
2033.00	10231.26
2034.00	10125.94
2035.00	10055.72
2036.00	9948.84
2037.00	9855.22
2038.00	9803.72
2039.00	9753.01
2040.00	9753.01
2041.00	9674.21
2042.00	9734.29
2043.00	9655.49
2044.00	9640.67
2045.00	9458.10
2046.00	9474.49
2047.00	9603.22
>>>>>End Processed Spectral Data<<<<<
