SpectraSuite Data File
++++++++++++++++++++++++++++++++++++
Date: Thu Nov 16 14:06:00 EST 2017
User: cheriyan
Dark Spectrum Present: No
Reference Spectrum Present: No
Number of Sampled Component Spectra: 1
Spectrometers: USB2+H05261
Integration Time (usec): 100000 (USB2+H05261)
Spectra Averaged: 1 (USB2+H05261)
Boxcar Smoothing: 1 (USB2+H05261)
Correct for Electrical Dark: No (USB2+H05261)
Strobe/Lamp Enabled: No (USB2+H05261)
Correct for Detector Non-linearity: No (USB2+H05261)
Correct for Stray Light: No (USB2+H05261)
Number of Pixels in Processed Spectrum: 2048
>>>>>Begin Processed Spectral Data<<<<<
0.00	262.14
1.00	262.14
2.00	255.12
3.00	247.32
4.00	237.95
5.00	241.08
6.00	248.10
7.00	237.17
8.00	230.15
9.00	226.25
10.00	233.27
11.00	260.58
12.00	248.88
13.00	248.10
14.00	247.32
15.00	264.48
16.00	252.00
17.00	225.47
18.00	231.71
19.00	276.18
20.00	298.03
21.00	294.13
22.00	316.75
23.00	383.07
24.00	540.66
25.00	679.54
26.00	818.41
27.00	856.64
28.00	846.49
29.00	844.93
30.00	848.83
31.00	875.36
32.00	880.82
33.00	897.99
34.00	905.79
35.00	903.45
36.00	879.26
37.00	869.90
38.00	872.24
39.00	883.16
40.00	905.01
41.00	909.69
42.00	940.90
43.00	972.88
44.00	986.93
45.00	972.88
46.00	936.21
47.00	947.92
48.00	979.90
49.00	1033.74
50.00	1048.56
51.00	1043.88
52.00	1015.79
53.00	1000.19
54.00	998.63
55.00	996.29
56.00	980.68
57.00	990.83
58.00	1027.50
59.00	1067.28
60.00	1073.53
61.00	1077.43
62.00	1088.35
63.00	1095.37
64.00	1066.50
65.00	1059.48
66.00	1034.52
67.00	1059.48
68.00	1052.46
69.00	1087.57
70.00	1098.49
71.00	1111.75
72.00	1091.47
73.00	1051.68
74.00	1049.34
75.00	1075.09
76.00	1097.71
77.00	1099.27
78.00	1100.05
79.00	1096.15
80.00	1104.73
81.00	1079.77
82.00	1101.61
83.00	1116.44
84.00	1167.93
85.00	1162.47
86.00	1142.96
87.00	1151.54
88.00	1192.11
89.00	1221.76
90.00	1213.96
91.00	1216.30
92.00	1206.94
93.00	1189.77
94.00	1175.73
95.00	1174.95
96.00	1178.07
97.00	1197.57
98.00	1231.12
99.00	1238.14
100.00	1243.60
101.00	1235.80
102.00	1260.77
103.00	1265.45
104.00	1273.25
105.00	1282.61
106.00	1291.20
107.00	1291.20
108.00	1322.40
109.00	1348.93
110.00	1348.15
111.00	1337.23
112.00	1308.36
113.00	1346.59
114.00	1348.93
115.00	1368.43
116.00	1376.24
117.00	1398.08
118.00	1423.05
119.00	1422.27
120.00	1441.77
121.00	1460.49
122.00	1490.14
123.00	1479.22
124.00	1482.34
125.00	1465.96
126.00	1472.98
127.00	1471.42
128.00	1486.24
129.00	1480.00
130.00	1517.45
131.00	1526.03
132.00	1585.32
133.00	1563.48
134.00	1558.80
135.00	1543.97
136.00	1567.38
137.00	1567.38
138.00	1553.34
139.00	1561.92
140.00	1566.60
141.00	1603.27
142.00	1592.34
143.00	1610.29
144.00	1596.25
145.00	1592.34
146.00	1618.09
147.00	1611.85
148.00	1638.38
149.00	1672.70
150.00	1716.39
151.00	1788.17
152.00	1769.44
153.00	1757.74
154.00	1730.44
155.00	1754.62
156.00	1772.57
157.00	1783.49
158.00	1796.75
159.00	1753.06
160.00	1728.10
161.00	1714.05
162.00	1770.23
163.00	1788.95
164.00	1806.11
165.00	1824.84
166.00	1858.39
167.00	1884.13
168.00	1920.02
169.00	1934.06
170.00	1922.36
171.00	1900.52
172.00	1909.88
173.00	1952.79
174.00	1950.45
175.00	1943.42
176.00	1909.88
177.00	1978.53
178.00	1999.60
179.00	2033.15
180.00	2021.44
181.00	2038.61
182.00	2051.87
183.00	2037.05
184.00	2054.99
185.00	2089.32
186.00	2101.02
187.00	2086.98
188.00	2102.58
189.00	2118.18
190.00	2157.19
191.00	2152.51
192.00	2179.04
193.00	2164.22
194.00	2165.00
195.00	2174.36
196.00	2194.64
197.00	2203.22
198.00	2255.50
199.00	2267.98
200.00	2267.98
201.00	2239.89
202.00	2290.60
203.00	2332.73
204.00	2354.58
205.00	2381.10
206.00	2391.25
207.00	2427.92
208.00	2399.05
209.00	2409.97
210.00	2388.13
211.00	2388.91
212.00	2388.13
213.00	2413.87
214.00	2420.89
215.00	2454.44
216.00	2455.22
217.00	2456.78
218.00	2459.12
219.00	2505.93
220.00	2557.43
221.00	2597.21
222.00	2595.65
223.00	2601.90
224.00	2617.50
225.00	2661.19
226.00	2665.87
227.00	2663.53
228.00	2658.07
229.00	2670.55
230.00	2699.42
231.00	2683.81
232.00	2686.15
233.00	2686.15
234.00	2688.50
235.00	2726.72
236.00	2790.70
237.00	2864.82
238.00	2897.58
239.00	2874.18
240.00	2858.57
241.00	2881.20
242.00	2924.89
243.00	2974.82
244.00	3017.73
245.00	3014.61
246.00	3048.94
247.00	3101.99
248.00	3082.49
249.00	3062.98
250.00	3000.57
251.00	3053.62
252.00	3074.68
253.00	3108.23
254.00	3173.77
255.00	3221.36
256.00	3233.84
257.00	3208.87
258.00	3243.98
259.00	3293.91
260.00	3306.40
261.00	3286.89
262.00	3284.55
263.00	3353.21
264.00	3361.01
265.00	3397.68
266.00	3378.95
267.00	3463.21
268.00	3467.89
269.00	3518.61
270.00	3513.14
271.00	3540.45
272.00	3538.89
273.00	3555.27
274.00	3595.84
275.00	3620.03
276.00	3652.80
277.00	3675.42
278.00	3703.51
279.00	3694.93
280.00	3715.21
281.00	3714.43
282.00	3707.41
283.00	3697.27
284.00	3712.87
285.00	3752.66
286.00	3811.17
287.00	3807.27
288.00	3895.43
289.00	3911.82
290.00	3960.19
291.00	3939.12
292.00	3925.08
293.00	3994.51
294.00	4005.44
295.00	4072.53
296.00	4023.38
297.00	4032.74
298.00	4022.60
299.00	4042.11
300.00	4033.52
301.00	4012.46
302.00	4035.08
303.00	4101.40
304.00	4137.29
305.00	4156.01
306.00	4162.25
307.00	4163.03
308.00	4202.04
309.00	4231.69
310.00	4235.59
311.00	4208.28
312.00	4148.21
313.00	4170.83
314.00	4221.55
315.00	4217.65
316.00	4273.82
317.00	4262.12
318.00	4339.35
319.00	4328.43
320.00	4395.53
321.00	4397.09
322.00	4408.01
323.00	4387.72
324.00	4458.72
325.00	4486.03
326.00	4566.39
327.00	4598.37
328.00	4598.37
329.00	4563.26
330.00	4589.79
331.00	4604.61
332.00	4615.54
333.00	4547.66
334.00	4597.59
335.00	4651.42
336.00	4691.21
337.00	4710.72
338.00	4732.56
339.00	4750.51
340.00	4788.74
341.00	4817.60
342.00	4940.09
343.00	4967.40
344.00	5030.59
345.00	4965.84
346.00	4990.02
347.00	4946.33
348.00	5031.37
349.00	5074.28
350.00	5128.89
351.00	5064.92
352.00	5052.44
353.00	5083.64
354.00	5181.95
355.00	5231.88
356.00	5209.25
357.00	5192.87
358.00	5190.53
359.00	5237.34
360.00	5256.06
361.00	5295.85
362.00	5321.60
363.00	5348.12
364.00	5327.84
365.00	5334.86
366.00	5355.93
367.00	5412.10
368.00	5465.15
369.00	5464.37
370.00	5491.68
371.00	5471.39
372.00	5508.06
373.00	5501.82
374.00	5563.45
375.00	5676.58
376.00	5704.67
377.00	5701.55
378.00	5651.61
379.00	5746.80
380.00	5824.81
381.00	5930.92
382.00	5957.44
383.00	5980.85
384.00	5991.77
385.00	6074.47
386.00	6102.56
387.00	6126.74
388.00	6125.96
389.00	6188.38
390.00	6261.71
391.00	6303.84
392.00	6341.29
393.00	6384.98
394.00	6400.58
395.00	6456.76
396.00	6483.28
397.00	6545.70
398.00	6577.69
399.00	6650.24
400.00	6676.77
401.00	6771.17
402.00	6776.63
403.00	6890.54
404.00	6886.64
405.00	6962.31
406.00	6915.50
407.00	6881.96
408.00	6848.41
409.00	6856.99
410.00	6891.32
411.00	6975.58
412.00	7000.54
413.00	6998.20
414.00	6938.13
415.00	6921.74
416.00	7001.32
417.00	6964.65
418.00	6995.08
419.00	6956.85
420.00	7027.07
421.00	7077.78
422.00	7135.51
423.00	7199.49
424.00	7242.40
425.00	7350.84
426.00	7323.54
427.00	7341.48
428.00	7286.87
429.00	7343.82
430.00	7313.39
431.00	7304.81
432.00	7274.38
433.00	7283.75
434.00	7386.73
435.00	7440.56
436.00	7512.34
437.00	7491.27
438.00	7502.98
439.00	7493.62
440.00	7488.93
441.00	7566.95
442.00	7701.92
443.00	7722.99
444.00	7776.82
445.00	7704.26
446.00	7825.19
447.00	7907.11
448.00	8013.99
449.00	8004.63
450.00	7926.61
451.00	7938.32
452.00	8030.38
453.00	8108.40
454.00	8098.25
455.00	8074.07
456.00	8071.73
457.00	8153.65
458.00	8188.75
459.00	8214.50
460.00	8200.46
461.00	8203.58
462.00	8267.55
463.00	8363.51
464.00	8432.95
465.00	8464.94
466.00	8567.92
467.00	8649.06
468.00	8631.12
469.00	8599.91
470.00	8651.40
471.00	8748.14
472.00	8751.26
473.00	8709.13
474.00	8773.11
475.00	8931.48
476.00	9050.07
477.00	9153.84
478.00	9124.97
479.00	9163.98
480.00	9150.71
481.00	9202.99
482.00	9126.53
483.00	9082.06
484.00	9127.31
485.00	9237.31
486.00	9369.94
487.00	9325.47
488.00	9294.27
489.00	9311.43
490.00	9433.92
491.00	9478.39
492.00	9465.91
493.00	9444.84
494.00	9501.01
495.00	9533.78
496.00	9535.34
497.00	9628.96
498.00	9739.75
499.00	9809.97
500.00	9795.14
501.00	9795.92
502.00	9907.49
503.00	9983.95
504.00	10000.33
505.00	9994.87
506.00	10074.45
507.00	10155.58
508.00	10221.12
509.00	10242.96
510.00	10361.55
511.00	10415.38
512.00	10446.59
513.00	10406.80
514.00	10422.41
515.00	10462.19
516.00	10496.52
517.00	10534.75
518.00	10579.22
519.00	10580.78
520.00	10697.81
521.00	10752.42
522.00	10803.13
523.00	10827.32
524.00	10839.02
525.00	10827.32
526.00	10723.55
527.00	10790.65
528.00	10937.32
529.00	11062.93
530.00	11125.35
531.00	11087.90
532.00	11037.19
533.00	11020.02
534.00	11035.63
535.00	11195.56
536.00	11198.68
537.00	11201.80
538.00	11170.60
539.00	11212.73
540.00	11385.15
541.00	11351.60
542.00	11393.73
543.00	11406.21
544.00	11509.19
545.00	11575.51
546.00	11601.26
547.00	11649.63
548.00	11754.95
549.00	11854.81
550.00	11966.38
551.00	12022.55
552.00	12084.97
553.00	12076.38
554.00	11951.56
555.00	11985.88
556.00	12024.11
557.00	12257.39
558.00	12297.95
559.00	12404.84
560.00	12455.55
561.00	12562.44
562.00	12698.19
563.00	12693.51
564.00	12801.95
565.00	12857.34
566.00	13158.49
567.00	13114.02
568.00	13026.64
569.00	12840.18
570.00	12995.43
571.00	13205.30
572.00	13308.29
573.00	13356.66
574.00	13384.74
575.00	13540.78
576.00	13667.95
577.00	13788.88
578.00	13902.00
579.00	13939.45
580.00	14089.24
581.00	14169.60
582.00	14333.44
583.00	14371.67
584.00	14558.91
585.00	14680.62
586.00	14866.30
587.00	14741.47
588.00	14745.38
589.00	14782.04
590.00	15004.39
591.00	15119.08
592.00	15335.19
593.00	15551.30
594.00	15736.20
595.00	15768.19
596.00	15791.59
597.00	15884.44
598.00	16048.27
599.00	16194.95
600.00	16333.04
601.00	16364.25
602.00	16332.26
603.00	16353.32
604.00	16526.52
605.00	16920.51
606.00	17034.42
607.00	17216.20
608.00	17285.64
609.00	17536.85
610.00	17631.26
611.00	17630.48
612.00	17758.42
613.00	17920.70
614.00	18180.50
615.00	18235.89
616.00	18272.56
617.00	18274.12
618.00	18515.20
619.00	18633.78
620.00	18892.02
621.00	19088.63
622.00	19381.20
623.00	19567.66
624.00	19627.73
625.00	19735.40
626.00	19788.45
627.00	19948.39
628.00	20066.19
629.00	20365.00
630.00	20709.06
631.00	20838.57
632.00	20890.06
633.00	20993.05
634.00	21278.59
635.00	21415.90
636.00	21489.24
637.00	21684.28
638.00	22100.12
639.00	22216.36
640.00	22253.81
641.00	22232.75
642.00	22436.38
643.00	22611.14
644.00	22724.26
645.00	22704.76
646.00	22887.32
647.00	23014.49
648.00	23263.36
649.00	23423.30
650.00	23633.95
651.00	23956.94
652.00	24076.31
653.00	24294.76
654.00	24464.84
655.00	24817.48
656.00	24915.78
657.00	25046.07
658.00	25088.98
659.00	25319.92
660.00	25592.20
661.00	25794.26
662.00	25960.44
663.00	25863.70
664.00	26079.81
665.00	26189.03
666.00	26625.93
667.00	26838.92
668.00	27077.66
669.00	27140.07
670.00	27082.34
671.00	27141.63
672.00	27347.60
673.00	27622.22
674.00	27953.02
675.00	27984.23
676.00	28087.99
677.00	28156.64
678.00	28386.80
679.00	28713.69
680.00	28917.32
681.00	29176.34
682.00	29280.88
683.00	29545.36
684.00	29736.51
685.00	29933.11
686.00	30086.03
687.00	30170.29
688.00	30345.05
689.00	30491.72
690.00	30805.35
691.00	30895.07
692.00	31112.74
693.00	31195.44
694.00	31372.54
695.00	31523.12
696.00	31555.10
697.00	31905.40
698.00	32094.21
699.00	32244.78
700.00	32422.66
701.00	32531.89
702.00	32815.87
703.00	32867.36
704.00	33101.42
705.00	33283.20
706.00	33636.62
707.00	33794.22
708.00	34128.13
709.00	34126.57
710.00	34130.47
711.00	34108.63
712.00	34313.81
713.00	34712.49
714.00	34942.64
715.00	35079.95
716.00	34999.59
717.00	35164.21
718.00	35101.79
719.00	35345.21
720.00	35367.84
721.00	35552.74
722.00	35614.37
723.00	35999.78
724.00	36272.84
725.00	36376.61
726.00	36249.44
727.00	36443.70
728.00	36757.33
729.00	36970.32
730.00	36982.02
731.00	36967.20
732.00	36986.71
733.00	37143.52
734.00	37292.54
735.00	37329.98
736.00	37388.50
737.00	37500.06
738.00	37775.47
739.00	38011.86
740.00	38100.80
741.00	38291.94
742.00	38208.47
743.00	38335.63
744.00	38193.64
745.00	38626.64
746.00	38752.25
747.00	39197.73
748.00	39104.11
749.00	39369.37
750.00	39393.56
751.00	39452.07
752.00	39659.60
753.00	39918.62
754.00	40249.41
755.00	40242.39
756.00	40291.54
757.00	40301.68
758.00	40347.72
759.00	40388.28
760.00	40590.35
761.00	40882.92
762.00	41050.66
763.00	41225.42
764.00	41122.43
765.00	41163.78
766.00	41222.30
767.00	41410.32
768.00	41533.59
769.00	41696.64
770.00	42096.88
771.00	42520.51
772.00	42799.82
773.00	42880.95
774.00	42902.02
775.00	42855.99
776.00	42864.57
777.00	42967.55
778.00	43152.46
779.00	43481.69
780.00	43572.97
781.00	43783.62
782.00	43858.52
783.00	44035.62
784.00	43968.52
785.00	43984.13
786.00	44186.19
787.00	44450.67
788.00	44648.06
789.00	44657.42
790.00	44718.28
791.00	44908.64
792.00	45034.25
793.00	45218.37
794.00	45250.36
795.00	45347.10
796.00	45533.56
797.00	45622.50
798.00	45739.53
799.00	45792.58
800.00	45843.29
801.00	46080.47
802.00	46213.88
803.00	46339.49
804.00	46460.41
805.00	46724.89
806.00	46886.39
807.00	46954.27
808.00	46906.68
809.00	47012.78
810.00	47156.33
811.00	47359.18
812.00	47420.03
813.00	47455.14
814.00	47434.08
815.00	47659.55
816.00	47728.20
817.00	47799.20
818.00	47913.11
819.00	48102.69
820.00	48338.30
821.00	48370.29
822.00	48450.65
823.00	48580.16
824.00	48758.04
825.00	48986.63
826.00	49091.18
827.00	49218.35
828.00	49286.22
829.00	49190.26
830.00	49166.07
831.00	49209.76
832.00	49375.94
833.00	49484.39
834.00	49385.30
835.00	49458.64
836.00	49601.41
837.00	49957.17
838.00	50102.29
839.00	50146.76
840.00	50043.77
841.00	50195.13
842.00	50445.57
843.00	50774.80
844.00	51002.61
845.00	51200.00
846.00	51235.11
847.00	51197.66
848.00	51124.32
849.00	51243.69
850.00	51335.75
851.00	51444.19
852.00	51350.57
853.00	51400.50
854.00	51370.86
855.00	51469.94
856.00	51623.64
857.00	51747.68
858.00	51984.86
859.00	52019.97
860.00	52102.67
861.00	52062.88
862.00	52116.71
863.00	52171.32
864.00	52250.12
865.00	52172.88
866.00	52275.87
867.00	52386.65
868.00	52474.03
869.00	52526.30
870.00	52711.20
871.00	52907.81
872.00	52966.32
873.00	52874.26
874.00	52932.78
875.00	53059.94
876.00	53254.21
877.00	53329.11
878.00	53341.59
879.00	53378.26
880.00	53569.40
881.00	53545.22
882.00	53536.63
883.00	53418.05
884.00	53513.23
885.00	53516.35
886.00	53608.41
887.00	53619.33
888.00	53666.92
889.00	53620.11
890.00	53719.98
891.00	53844.80
892.00	53963.39
893.00	53998.50
894.00	54048.43
895.00	54173.26
896.00	54293.41
897.00	54230.21
898.00	54209.15
899.00	54282.48
900.00	54454.12
901.00	54543.84
902.00	54499.37
903.00	54572.71
904.00	54611.72
905.00	54834.07
906.00	54909.75
907.00	55022.87
908.00	54855.14
909.00	54979.96
910.00	54910.53
911.00	55047.84
912.00	54799.74
913.00	54840.31
914.00	54824.71
915.00	54973.72
916.00	54958.12
917.00	55025.99
918.00	55117.28
919.00	55204.66
920.00	55253.03
921.00	55259.27
922.00	55428.57
923.00	55362.25
924.00	55402.82
925.00	55398.92
926.00	55664.18
927.00	55738.30
928.00	55833.48
929.00	55902.14
930.00	55938.80
931.00	55819.44
932.00	55858.45
933.00	55900.57
934.00	56041.01
935.00	56024.62
936.00	56176.76
937.00	56188.46
938.00	56108.88
939.00	56119.02
940.00	56201.72
941.00	56293.00
942.00	56308.61
943.00	56459.96
944.00	56576.21
945.00	56613.66
946.00	56565.29
947.00	56538.76
948.00	56584.01
949.00	56578.55
950.00	56765.01
951.00	56825.87
952.00	56825.87
953.00	56708.06
954.00	56747.07
955.00	56909.35
956.00	57010.77
957.00	57017.01
958.00	57130.92
959.00	57240.14
960.00	57307.24
961.00	57225.32
962.00	57324.40
963.00	57397.74
964.00	57513.20
965.00	57482.78
966.00	57635.69
967.00	57850.24
968.00	57911.88
969.00	57728.53
970.00	57725.41
971.00	57845.56
972.00	58029.68
973.00	57902.51
974.00	57900.17
975.00	57975.07
976.00	57993.79
977.00	57986.77
978.00	57962.59
979.00	58039.82
980.00	58110.04
981.00	58268.42
982.00	58312.89
983.00	58297.28
984.00	58222.39
985.00	58234.87
986.00	58323.81
987.00	58272.32
988.00	58383.88
989.00	58338.63
990.00	58492.33
991.00	58379.20
992.00	58463.46
993.00	58422.89
994.00	58670.99
995.00	58764.61
996.00	58898.80
997.00	59018.17
998.00	59175.76
999.00	59314.64
1000.00	59322.44
1001.00	59316.98
1002.00	59165.62
1003.00	59006.47
1004.00	58944.83
1005.00	59057.96
1006.00	59181.23
1007.00	59228.82
1008.00	59253.78
1009.00	59187.47
1010.00	59189.81
1011.00	59141.44
1012.00	59321.66
1013.00	59338.04
1014.00	59478.47
1015.00	59471.45
1016.00	59475.35
1017.00	59583.80
1018.00	59624.37
1019.00	59799.91
1020.00	59774.16
1021.00	59849.06
1022.00	59844.38
1023.00	59786.64
1024.00	59749.98
1025.00	59811.61
1026.00	59986.37
1027.00	60145.53
1028.00	60186.88
1029.00	60121.34
1030.00	60038.64
1031.00	60133.04
1032.00	60217.30
1033.00	60386.60
1034.00	60384.26
1035.00	60461.50
1036.00	60508.31
1037.00	60519.23
1038.00	60485.68
1039.00	60405.33
1040.00	60406.11
1041.00	60449.02
1042.00	60459.94
1043.00	60516.11
1044.00	60632.36
1045.00	60748.60
1046.00	60820.38
1047.00	60743.14
1048.00	60782.15
1049.00	60737.68
1050.00	60839.11
1051.00	60795.42
1052.00	60925.70
1053.00	60925.70
1054.00	60956.91
1055.00	60906.98
1056.00	60859.39
1057.00	60873.43
1058.00	60891.38
1059.00	60956.91
1060.00	61119.97
1061.00	61179.26
1062.00	61329.84
1063.00	61179.26
1064.00	61070.04
1065.00	60966.27
1066.00	61124.65
1067.00	61307.21
1068.00	61373.53
1069.00	61304.09
1070.00	61281.47
1071.00	61357.14
1072.00	61524.88
1073.00	61655.95
1074.00	61717.59
1075.00	61701.98
1076.00	61670.78
1077.00	61689.50
1078.00	61737.09
1079.00	61822.13
1080.00	61814.33
1081.00	61847.10
1082.00	61897.81
1083.00	61879.86
1084.00	61829.15
1085.00	61768.30
1086.00	61746.45
1087.00	61790.92
1088.00	61746.45
1089.00	61846.32
1090.00	61889.23
1091.00	61995.33
1092.00	62054.62
1093.00	62028.88
1094.00	62042.92
1095.00	62067.11
1096.00	62091.29
1097.00	62125.62
1098.00	62098.31
1099.00	62186.47
1100.00	62236.41
1101.00	62332.37
1102.00	62255.91
1103.00	62233.28
1104.00	62249.67
1105.00	62320.66
1106.00	62287.12
1107.00	62276.97
1108.00	62307.40
1109.00	62408.82
1110.00	62568.76
1111.00	62582.80
1112.00	62637.42
1113.00	62477.48
1114.00	62472.02
1115.00	62425.21
1116.00	62452.51
1117.00	62477.48
1118.00	62499.33
1119.00	62528.19
1120.00	62603.87
1121.00	62613.23
1122.00	62690.47
1123.00	62631.18
1124.00	62607.77
1125.00	62503.23
1126.00	62553.94
1127.00	62612.45
1128.00	62535.99
1129.00	62410.38
1130.00	62337.83
1131.00	62455.64
1132.00	62554.72
1133.00	62570.32
1134.00	62632.74
1135.00	62592.95
1136.00	62642.88
1137.00	62614.01
1138.00	62727.14
1139.00	62865.23
1140.00	62937.01
1141.00	62954.95
1142.00	62912.04
1143.00	62880.05
1144.00	62918.28
1145.00	62920.62
1146.00	63051.69
1147.00	62987.72
1148.00	62976.79
1149.00	62890.19
1150.00	62962.75
1151.00	63009.56
1152.00	63002.54
1153.00	62936.23
1154.00	62787.21
1155.00	62687.35
1156.00	62697.49
1157.00	62784.87
1158.00	62883.95
1159.00	62966.65
1160.00	63057.93
1161.00	63044.67
1162.00	62982.26
1163.00	62861.33
1164.00	62887.07
1165.00	62973.67
1166.00	63034.53
1167.00	63140.63
1168.00	63236.59
1169.00	63281.06
1170.00	63213.97
1171.00	63125.03
1172.00	63112.55
1173.00	63089.14
1174.00	63039.21
1175.00	63113.33
1176.00	63118.79
1177.00	63163.26
1178.00	63043.89
1179.00	63048.57
1180.00	63095.38
1181.00	63175.74
1182.00	63239.71
1183.00	63220.21
1184.00	63270.92
1185.00	63262.34
1186.00	63255.32
1187.00	63201.49
1188.00	63253.76
1189.00	63239.71
1190.00	63268.58
1191.00	63256.10
1192.00	63166.38
1193.00	63108.64
1194.00	63052.47
1195.00	63139.85
1196.00	63136.73
1197.00	63126.59
1198.00	63145.31
1199.00	63217.87
1200.00	63236.59
1201.00	63296.67
1202.00	63298.23
1203.00	63356.74
1204.00	63256.88
1205.00	63321.63
1206.00	63340.36
1207.00	63493.27
1208.00	63451.92
1209.00	63423.06
1210.00	63441.78
1211.00	63469.87
1212.00	63516.68
1213.00	63515.90
1214.00	63404.33
1215.00	63336.46
1216.00	63262.34
1217.00	63316.95
1218.00	63327.09
1219.00	63378.59
1220.00	63444.90
1221.00	63472.99
1222.00	63551.01
1223.00	63573.63
1224.00	63597.82
1225.00	63533.06
1226.00	63555.69
1227.00	63543.20
1228.00	63423.84
1229.00	63301.35
1230.00	63289.65
1231.00	63429.30
1232.00	63514.34
1233.00	63568.95
1234.00	63532.28
1235.00	63524.48
1236.00	63511.22
1237.00	63511.22
1238.00	63593.14
1239.00	63708.60
1240.00	63770.24
1241.00	63779.60
1242.00	63717.18
1243.00	63674.27
1244.00	63585.33
1245.00	63604.06
1246.00	63614.20
1247.00	63741.37
1248.00	63827.97
1249.00	63926.27
1250.00	63932.51
1251.00	63957.48
1252.00	63995.71
1253.00	64106.49
1254.00	64081.53
1255.00	63953.58
1256.00	63875.56
1257.00	63879.46
1258.00	63925.49
1259.00	63852.94
1260.00	63884.92
1261.00	64000.39
1262.00	64179.05
1263.00	64234.44
1264.00	64215.72
1265.00	64126.78
1266.00	64033.94
1267.00	64016.77
1268.00	64063.58
1269.00	64148.62
1270.00	64253.95
1271.00	64343.67
1272.00	64513.75
1273.00	64503.60
1274.00	64518.43
1275.00	64427.15
1276.00	64473.96
1277.00	64419.34
1278.00	64415.44
1279.00	64365.51
1280.00	64302.32
1281.00	64294.52
1282.00	64378.78
1283.00	64484.10
1284.00	64408.42
1285.00	64390.48
1286.00	64397.50
1287.00	64488.00
1288.00	64465.38
1289.00	64478.64
1290.00	64519.99
1291.00	64580.06
1292.00	64626.09
1293.00	64602.69
1294.00	64552.76
1295.00	64521.55
1296.00	64499.70
1297.00	64507.50
1298.00	64561.34
1299.00	64553.54
1300.00	64519.99
1301.00	64452.11
1302.00	64459.13
1303.00	64516.87
1304.00	64605.81
1305.00	64699.43
1306.00	64697.09
1307.00	64631.55
1308.00	64590.20
1309.00	64597.23
1310.00	64629.21
1311.00	64676.02
1312.00	64800.85
1313.00	64834.40
1314.00	64927.24
1315.00	64928.80
1316.00	64940.50
1317.00	64874.19
1318.00	64850.00
1319.00	64857.02
1320.00	64932.70
1321.00	65031.00
1322.00	65146.47
1323.00	65134.77
1324.00	65127.75
1325.00	65088.74
1326.00	65045.83
1327.00	64987.31
1328.00	64956.89
1329.00	64999.02
1330.00	65040.37
1331.00	65115.26
1332.00	65128.53
1333.00	65075.47
1334.00	65102.00
1335.00	65102.00
1336.00	65167.54
1337.00	65173.78
1338.00	65231.51
1339.00	65300.95
1340.00	65318.11
1341.00	65311.87
1342.00	65208.11
1343.00	65250.23
1344.00	65188.60
1345.00	65197.96
1346.00	65066.89
1347.00	65130.87
1348.00	65155.83
1349.00	65139.45
1350.00	65035.69
1351.00	64998.24
1352.00	65021.64
1353.00	65054.41
1354.00	65006.82
1355.00	64955.33
1356.00	65002.92
1357.00	65142.57
1358.00	65303.29
1359.00	65283.78
1360.00	65278.32
1361.00	65220.59
1362.00	65292.36
1363.00	65280.66
1364.00	65243.99
1365.00	65255.70
1366.00	65288.46
1367.00	65335.27
1368.00	65393.01
1369.00	65354.00
1370.00	65313.43
1371.00	65163.64
1372.00	65158.95
1373.00	65177.68
1374.00	65185.48
1375.00	65211.23
1376.00	65261.94
1377.00	65278.32
1378.00	65283.78
1379.00	65243.99
1380.00	65273.64
1381.00	65314.21
1382.00	65404.71
1383.00	65481.95
1384.00	65354.78
1385.00	65270.52
1386.00	65208.89
1387.00	65322.79
1388.00	65389.11
1389.00	65361.02
1390.00	65312.65
1391.00	65206.54
1392.00	65254.14
1393.00	65225.27
1394.00	65124.63
1395.00	65084.84
1396.00	65151.15
1397.00	65253.36
1398.00	65253.36
1399.00	65147.25
1400.00	65190.16
1401.00	65153.49
1402.00	65280.66
1403.00	65197.18
1404.00	65158.95
1405.00	65019.30
1406.00	65025.54
1407.00	65088.74
1408.00	65094.20
1409.00	65051.29
1410.00	65013.84
1411.00	64975.61
1412.00	64992.78
1413.00	65063.77
1414.00	65177.68
1415.00	65308.75
1416.00	65354.78
1417.00	65334.49
1418.00	65279.10
1419.00	65210.45
1420.00	65192.50
1421.00	65161.29
1422.00	65154.27
1423.00	65203.42
1424.00	65215.91
1425.00	65193.28
1426.00	65074.69
1427.00	65075.47
1428.00	65062.99
1429.00	65104.34
1430.00	65187.04
1431.00	65268.18
1432.00	65305.63
1433.00	65222.93
1434.00	65142.57
1435.00	65116.04
1436.00	65020.86
1437.00	64971.71
1438.00	64989.66
1439.00	65060.65
1440.00	65173.78
1441.00	65165.20
1442.00	65208.11
1443.00	65092.64
1444.00	65070.79
1445.00	64979.51
1446.00	65046.61
1447.00	64955.33
1448.00	64898.37
1449.00	64773.55
1450.00	64861.71
1451.00	64934.26
1452.00	65013.06
1453.00	65042.71
1454.00	65067.67
1455.00	65149.59
1456.00	65085.62
1457.00	65059.09
1458.00	65084.84
1459.00	65014.62
1460.00	64968.59
1461.00	64800.85
1462.00	64783.69
1463.00	64731.42
1464.00	64711.91
1465.00	64753.26
1466.00	64782.13
1467.00	64736.10
1468.00	64690.85
1469.00	64656.52
1470.00	64711.13
1471.00	64746.24
1472.00	64842.98
1473.00	64846.88
1474.00	64867.17
1475.00	64874.19
1476.00	64928.02
1477.00	64906.96
1478.00	64901.50
1479.00	64874.19
1480.00	64861.71
1481.00	64837.52
1482.00	64913.20
1483.00	65034.13
1484.00	65035.69
1485.00	64873.41
1486.00	64737.66
1487.00	64690.07
1488.00	64670.56
1489.00	64595.66
1490.00	64516.87
1491.00	64585.52
1492.00	64568.36
1493.00	64636.23
1494.00	64580.06
1495.00	64662.76
1496.00	64639.36
1497.00	64640.14
1498.00	64587.08
1499.00	64552.76
1500.00	64549.63
1501.00	64508.28
1502.00	64480.20
1503.00	64411.54
1504.00	64449.77
1505.00	64520.77
1506.00	64569.14
1507.00	64609.71
1508.00	64578.50
1509.00	64619.85
1510.00	64527.01
1511.00	64448.99
1512.00	64338.99
1513.00	64271.11
1514.00	64331.96
1515.00	64412.32
1516.00	64476.30
1517.00	64485.66
1518.00	64472.40
1519.00	64509.07
1520.00	64488.78
1521.00	64392.04
1522.00	64318.70
1523.00	64331.96
1524.00	64434.95
1525.00	64507.50
1526.00	64396.72
1527.00	64179.05
1528.00	64125.22
1529.00	64151.74
1530.00	64227.42
1531.00	64127.56
1532.00	64184.51
1533.00	64312.46
1534.00	64432.61
1535.00	64381.12
1536.00	64293.74
1537.00	64263.31
1538.00	64281.25
1539.00	64328.06
1540.00	64365.51
1541.00	64301.54
1542.00	64218.84
1543.00	64147.06
1544.00	64239.12
1545.00	64278.91
1546.00	64311.68
1547.00	64228.20
1548.00	64250.83
1549.00	64197.77
1550.00	64182.95
1551.00	64105.71
1552.00	64186.07
1553.00	64249.27
1554.00	64282.03
1555.00	64221.96
1556.00	64179.83
1557.00	64113.51
1558.00	64067.48
1559.00	64023.79
1560.00	64068.26
1561.00	64133.02
1562.00	64202.45
1563.00	64254.73
1564.00	64113.51
1565.00	64007.41
1566.00	63973.08
1567.00	64118.20
1568.00	64042.52
1569.00	63859.96
1570.00	63763.21
1571.00	63759.31
1572.00	63795.98
1573.00	63813.93
1574.00	63888.04
1575.00	63897.41
1576.00	63819.39
1577.00	63747.61
1578.00	63715.62
1579.00	63759.31
1580.00	63772.58
1581.00	63774.14
1582.00	63690.66
1583.00	63659.45
1584.00	63638.39
1585.00	63663.35
1586.00	63714.84
1587.00	63680.52
1588.00	63683.64
1589.00	63673.49
1590.00	63713.28
1591.00	63668.81
1592.00	63526.82
1593.00	63454.26
1594.00	63470.65
1595.00	63472.21
1596.00	63589.23
1597.00	63620.44
1598.00	63707.04
1599.00	63658.67
1600.00	63650.87
1601.00	63620.44
1602.00	63597.04
1603.00	63518.24
1604.00	63494.05
1605.00	63486.25
1606.00	63451.92
1607.00	63443.34
1608.00	63453.48
1609.00	63426.18
1610.00	63441.00
1611.00	63402.77
1612.00	63536.96
1613.00	63625.90
1614.00	63707.04
1615.00	63757.75
1616.00	63704.70
1617.00	63668.81
1618.00	63537.74
1619.00	63479.23
1620.00	63465.19
1621.00	63412.13
1622.00	63412.91
1623.00	63281.84
1624.00	63291.99
1625.00	63269.36
1626.00	63328.66
1627.00	63309.93
1628.00	63288.87
1629.00	63281.84
1630.00	63370.78
1631.00	63451.92
1632.00	63491.71
1633.00	63482.35
1634.00	63518.24
1635.00	63537.74
1636.00	63476.89
1637.00	63312.27
1638.00	63178.08
1639.00	63084.46
1640.00	63107.86
1641.00	63136.73
1642.00	63256.10
1643.00	63357.52
1644.00	63400.43
1645.00	63379.37
1646.00	63265.46
1647.00	63212.41
1648.00	63196.80
1649.00	63221.77
1650.00	63151.55
1651.00	62983.82
1652.00	62993.18
1653.00	63023.61
1654.00	63083.68
1655.00	62976.79
1656.00	62908.14
1657.00	62881.61
1658.00	62834.02
1659.00	62788.77
1660.00	62815.30
1661.00	62830.12
1662.00	62974.45
1663.00	63058.71
1664.00	63112.55
1665.00	63174.96
1666.00	63103.18
1667.00	63149.99
1668.00	63160.92
1669.00	63225.67
1670.00	63171.06
1671.00	63121.91
1672.00	63144.53
1673.00	63242.06
1674.00	63241.28
1675.00	63179.64
1676.00	63029.85
1677.00	62907.36
1678.00	62784.87
1679.00	62753.66
1680.00	62830.12
1681.00	62873.03
1682.00	62951.05
1683.00	62891.76
1684.00	62870.69
1685.00	62730.26
1686.00	62653.02
1687.00	62586.71
1688.00	62627.27
1689.00	62617.13
1690.00	62631.18
1691.00	62559.40
1692.00	62568.76
1693.00	62548.48
1694.00	62596.85
1695.00	62615.57
1696.00	62674.87
1697.00	62699.83
1698.00	62629.62
1699.00	62544.58
1700.00	62445.49
1701.00	62429.11
1702.00	62407.26
1703.00	62459.54
1704.00	62478.26
1705.00	62450.95
1706.00	62423.65
1707.00	62298.04
1708.00	62326.91
1709.00	62280.10
1710.00	62307.40
1711.00	62296.48
1712.00	62291.02
1713.00	62358.11
1714.00	62362.79
1715.00	62276.19
1716.00	62122.50
1717.00	62026.54
1718.00	61985.97
1719.00	61937.60
1720.00	61902.49
1721.00	61865.82
1722.00	61895.47
1723.00	61854.12
1724.00	61850.22
1725.00	61810.43
1726.00	61771.42
1727.00	61705.10
1728.00	61723.83
1729.00	61704.32
1730.00	61762.84
1731.00	61747.23
1732.00	61744.11
1733.00	61685.60
1734.00	61715.25
1735.00	61744.11
1736.00	61806.53
1737.00	61794.82
1738.00	61746.45
1739.00	61786.24
1740.00	61711.34
1741.00	61744.11
1742.00	61680.92
1743.00	61552.19
1744.00	61440.62
1745.00	61223.73
1746.00	61188.63
1747.00	61158.98
1748.00	61259.62
1749.00	61268.98
1750.00	61130.11
1751.00	60926.49
1752.00	60883.58
1753.00	60915.56
1754.00	60939.75
1755.00	60832.08
1756.00	60676.05
1757.00	60601.15
1758.00	60555.90
1759.00	60591.79
1760.00	60587.89
1761.00	60529.37
1762.00	60466.18
1763.00	60353.05
1764.00	60279.72
1765.00	60279.72
1766.00	60210.28
1767.00	60270.36
1768.00	60249.29
1769.00	60270.36
1770.00	60247.73
1771.00	60239.93
1772.00	60265.67
1773.00	60189.22
1774.00	60023.82
1775.00	59987.15
1776.00	60008.22
1777.00	60105.74
1778.00	60100.28
1779.00	60055.03
1780.00	59926.30
1781.00	59924.74
1782.00	60044.88
1783.00	60103.40
1784.00	60094.03
1785.00	59999.63
1786.00	59878.71
1787.00	59732.03
1788.00	59628.27
1789.00	59704.73
1790.00	59770.26
1791.00	59677.42
1792.00	59554.15
1793.00	59461.31
1794.00	59422.30
1795.00	59388.75
1796.00	59245.20
1797.00	59208.53
1798.00	59179.67
1799.00	59327.12
1800.00	59272.51
1801.00	59186.69
1802.00	59018.95
1803.00	59032.99
1804.00	58954.19
1805.00	59000.22
1806.00	58792.70
1807.00	58683.47
1808.00	58450.20
1809.00	58312.11
1810.00	58130.33
1811.00	58066.35
1812.00	57997.69
1813.00	57962.59
1814.00	57790.95
1815.00	57781.59
1816.00	57780.02
1817.00	57761.30
1818.00	57631.01
1819.00	57574.84
1820.00	57513.20
1821.00	57506.96
1822.00	57359.51
1823.00	57294.75
1824.00	57265.11
1825.00	57311.14
1826.00	57258.09
1827.00	57222.98
1828.00	57233.12
1829.00	57149.64
1830.00	56838.35
1831.00	56740.83
1832.00	56659.69
1833.00	56679.97
1834.00	56386.63
1835.00	56211.09
1836.00	56005.90
1837.00	55970.01
1838.00	55876.39
1839.00	55912.28
1840.00	55866.25
1841.00	55824.12
1842.00	55799.15
1843.00	55767.16
1844.00	55684.47
1845.00	55479.28
1846.00	55308.42
1847.00	55167.21
1848.00	55068.12
1849.00	54923.01
1850.00	54776.34
1851.00	54628.88
1852.00	54491.57
1853.00	54529.80
1854.00	54461.15
1855.00	54348.02
1856.00	54184.96
1857.00	54248.16
1858.00	54200.57
1859.00	54163.90
1860.00	53918.14
1861.00	53746.50
1862.00	53351.73
1863.00	53197.26
1864.00	52967.10
1865.00	53063.07
1866.00	52988.95
1867.00	53015.47
1868.00	52738.51
1869.00	52531.76
1870.00	52394.45
1871.00	52225.93
1872.00	52129.97
1873.00	52085.50
1874.00	52139.33
1875.00	52014.51
1876.00	51852.23
1877.00	51707.90
1878.00	51530.79
1879.00	51483.98
1880.00	51235.89
1881.00	51240.57
1882.00	51033.04
1883.00	50834.88
1884.00	50564.93
1885.00	50261.44
1886.00	50205.27
1887.00	50209.95
1888.00	50343.36
1889.00	50242.72
1890.00	49927.53
1891.00	49517.93
1892.00	49386.08
1893.00	49540.56
1894.00	49773.83
1895.00	49891.64
1896.00	49760.57
1897.00	49610.78
1898.00	49393.11
1899.00	49078.69
1900.00	48722.93
1901.00	48392.92
1902.00	48403.06
1903.00	48261.85
1904.00	48360.93
1905.00	48192.41
1906.00	47980.20
1907.00	47533.16
1908.00	47374.00
1909.00	47438.76
1910.00	47469.97
1911.00	47252.30
1912.00	46867.67
1913.00	46548.57
1914.00	46080.47
1915.00	45675.55
1916.00	45405.61
1917.00	45270.64
1918.00	45200.43
1919.00	45142.69
1920.00	44936.73
1921.00	44846.22
1922.00	44623.87
1923.00	44502.17
1924.00	44272.01
1925.00	43986.47
1926.00	43759.44
1927.00	43359.20
1928.00	43209.41
1929.00	42966.77
1930.00	42969.12
1931.00	42737.40
1932.00	42527.53
1933.00	42405.05
1934.00	42245.11
1935.00	42322.35
1936.00	42005.59
1937.00	41694.30
1938.00	41493.80
1939.00	41319.04
1940.00	41290.95
1941.00	40862.63
1942.00	40446.80
1943.00	40072.31
1944.00	39811.73
1945.00	39878.83
1946.00	39988.05
1947.00	39953.72
1948.00	39848.40
1949.00	39537.11
1950.00	39236.74
1951.00	38993.33
1952.00	38733.53
1953.00	38506.49
1954.00	38309.11
1955.00	38043.07
1956.00	37833.20
1957.00	37542.19
1958.00	37315.16
1959.00	37169.27
1960.00	36975.00
1961.00	36660.59
1962.00	36387.53
1963.00	36099.64
1964.00	36070.78
1965.00	35897.58
1966.00	35527.77
1967.00	35328.05
1968.00	35159.53
1969.00	34932.50
1970.00	34505.74
1971.00	34104.73
1972.00	33997.84
1973.00	33877.69
1974.00	33864.43
1975.00	33623.36
1976.00	33331.57
1977.00	33136.52
1978.00	32988.29
1979.00	32840.84
1980.00	32662.96
1981.00	32357.13
1982.00	32268.19
1983.00	31938.95
1984.00	31815.68
1985.00	31487.23
1986.00	31150.97
1987.00	30914.58
1988.00	30661.02
1989.00	30507.32
1990.00	30335.68
1991.00	30067.30
1992.00	29774.74
1993.00	29494.65
1994.00	29443.94
1995.00	29419.75
1996.00	29158.39
1997.00	28988.32
1998.00	28857.24
1999.00	28689.51
2000.00	28341.55
2001.00	27912.45
2002.00	27811.03
2003.00	27746.27
2004.00	27637.83
2005.00	27314.05
2006.00	27065.96
2007.00	26839.70
2008.00	26639.98
2009.00	26348.97
2010.00	26169.53
2011.00	25994.77
2012.00	25969.02
2013.00	25817.67
2014.00	25571.13
2015.00	25269.98
2016.00	25103.03
2017.00	25135.79
2018.00	24904.86
2019.00	24670.03
2020.00	24418.03
2021.00	24357.18
2022.00	24169.15
2023.00	23871.12
2024.00	23663.60
2025.00	23509.90
2026.00	23553.59
2027.00	23389.75
2028.00	23218.11
2029.00	23082.36
2030.00	22963.00
2031.00	22850.65
2032.00	22555.74
2033.00	22317.79
2034.00	22127.42
2035.00	21873.09
2036.00	21692.87
2037.00	21571.16
2038.00	21468.95
2039.00	21313.70
2040.00	21084.33
2041.00	21187.31
2042.00	21049.22
2043.00	20929.85
2044.00	20475.01
2045.00	20290.10
2046.00	20017.04
2047.00	19756.46
>>>>>End Processed Spectral Data<<<<<
