SpectraSuite Data File
++++++++++++++++++++++++++++++++++++
Date: Thu Nov 16 14:11:43 EST 2017
User: cheriyan
Dark Spectrum Present: No
Reference Spectrum Present: No
Number of Sampled Component Spectra: 1
Spectrometers: USB2+H05261
Integration Time (usec): 100000 (USB2+H05261)
Spectra Averaged: 1 (USB2+H05261)
Boxcar Smoothing: 1 (USB2+H05261)
Correct for Electrical Dark: No (USB2+H05261)
Strobe/Lamp Enabled: No (USB2+H05261)
Correct for Detector Non-linearity: No (USB2+H05261)
Correct for Stray Light: No (USB2+H05261)
Number of Pixels in Processed Spectrum: 2048
>>>>>Begin Processed Spectral Data<<<<<
0.00	421.30
1.00	421.30
2.00	391.65
3.00	337.04
4.00	275.40
5.00	253.56
6.00	254.34
7.00	244.98
8.00	238.73
9.00	232.49
10.00	243.42
11.00	240.30
12.00	220.01
13.00	222.35
14.00	227.81
15.00	259.80
16.00	260.58
17.00	257.46
18.00	234.05
19.00	233.27
20.00	252.78
21.00	285.55
22.00	306.61
23.00	337.82
24.00	457.96
25.00	565.63
26.00	646.77
27.00	662.37
28.00	677.20
29.00	668.61
30.00	649.11
31.00	631.94
32.00	658.47
33.00	699.82
34.00	727.91
35.00	746.63
36.00	713.08
37.00	688.12
38.00	671.73
39.00	693.58
40.00	729.47
41.00	748.97
42.00	744.29
43.00	726.35
44.00	737.27
45.00	748.19
46.00	787.98
47.00	781.74
48.00	805.92
49.00	809.05
50.00	807.48
51.00	766.14
52.00	750.53
53.00	755.21
54.00	771.60
55.00	770.04
56.00	777.06
57.00	806.70
58.00	786.42
59.00	764.57
60.00	759.11
61.00	785.64
62.00	813.73
63.00	819.97
64.00	815.29
65.00	798.12
66.00	803.58
67.00	826.99
68.00	837.13
69.00	808.26
70.00	826.99
71.00	848.05
72.00	870.68
73.00	833.23
74.00	830.11
75.00	816.07
76.00	831.67
77.00	838.69
78.00	833.23
79.00	828.55
80.00	816.07
81.00	829.33
82.00	853.52
83.00	855.08
84.00	874.58
85.00	866.78
86.00	874.58
87.00	851.95
88.00	869.90
89.00	883.16
90.00	914.37
91.00	896.43
92.00	897.21
93.00	893.30
94.00	904.23
95.00	900.33
96.00	908.91
97.00	926.07
98.00	934.65
99.00	922.17
100.00	916.71
101.00	922.17
102.00	907.35
103.00	926.07
104.00	917.49
105.00	961.18
106.00	947.14
107.00	975.22
108.00	992.39
109.00	1018.91
110.00	1015.01
111.00	1004.09
112.00	1001.75
113.00	1030.62
114.00	1022.81
115.00	1004.87
116.00	995.51
117.00	1017.35
118.00	1032.18
119.00	1019.69
120.00	987.71
121.00	1000.97
122.00	993.95
123.00	1070.40
124.00	1054.80
125.00	1065.72
126.00	1004.09
127.00	993.95
128.00	1004.87
129.00	1042.32
130.00	1046.22
131.00	1048.56
132.00	1044.66
133.00	1070.40
134.00	1087.57
135.00	1111.75
136.00	1140.62
137.00	1132.04
138.00	1110.97
139.00	1110.19
140.00	1100.05
141.00	1100.05
142.00	1110.19
143.00	1115.66
144.00	1142.96
145.00	1128.14
146.00	1164.03
147.00	1158.57
148.00	1192.89
149.00	1205.38
150.00	1221.76
151.00	1205.38
152.00	1206.94
153.00	1240.48
154.00	1270.13
155.00	1288.85
156.00	1263.89
157.00	1243.60
158.00	1245.17
159.00	1246.73
160.00	1254.53
161.00	1255.31
162.00	1277.93
163.00	1274.03
164.00	1263.89
165.00	1282.61
166.00	1321.62
167.00	1308.36
168.00	1278.71
169.00	1308.36
170.00	1338.79
171.00	1373.89
172.00	1329.42
173.00	1320.06
174.00	1312.26
175.00	1323.96
176.00	1361.41
177.00	1350.49
178.00	1382.48
179.00	1408.22
180.00	1426.17
181.00	1420.71
182.00	1423.83
183.00	1444.89
184.00	1444.11
185.00	1436.31
186.00	1418.36
187.00	1402.76
188.00	1402.76
189.00	1409.00
190.00	1435.53
191.00	1437.09
192.00	1453.47
193.00	1504.96
194.00	1509.65
195.00	1540.85
196.00	1515.11
197.00	1536.95
198.00	1546.31
199.00	1556.46
200.00	1540.07
201.00	1549.43
202.00	1563.48
203.00	1575.96
204.00	1582.20
205.00	1604.83
206.00	1628.23
207.00	1614.97
208.00	1598.59
209.00	1608.73
210.00	1672.70
211.00	1688.31
212.00	1690.65
213.00	1639.94
214.00	1646.96
215.00	1632.91
216.00	1657.88
217.00	1664.90
218.00	1690.65
219.00	1703.91
220.00	1682.06
221.00	1724.97
222.00	1721.85
223.00	1766.32
224.00	1758.52
225.00	1760.08
226.00	1749.16
227.00	1753.06
228.00	1747.60
229.00	1746.82
230.00	1741.36
231.00	1766.32
232.00	1801.43
233.00	1813.14
234.00	1817.04
235.00	1829.52
236.00	1865.41
237.00	1920.02
238.00	1910.66
239.00	1902.08
240.00	1902.08
241.00	1961.37
242.00	1978.53
243.00	1983.21
244.00	1981.65
245.00	2016.76
246.00	2005.84
247.00	2018.32
248.00	1997.26
249.00	1981.65
250.00	1983.99
251.00	2013.64
252.00	2122.87
253.00	2112.72
254.00	2120.53
255.00	2081.52
256.00	2089.32
257.00	2125.99
258.00	2161.87
259.00	2227.41
260.00	2196.20
261.00	2178.26
262.00	2170.46
263.00	2198.54
264.00	2254.72
265.00	2253.94
266.00	2271.10
267.00	2246.91
268.00	2247.69
269.00	2265.64
270.00	2298.41
271.00	2340.54
272.00	2378.76
273.00	2357.70
274.00	2380.32
275.00	2363.94
276.00	2399.83
277.00	2404.51
278.00	2388.13
279.00	2393.59
280.00	2441.18
281.00	2476.29
282.00	2510.61
283.00	2494.23
284.00	2511.39
285.00	2487.21
286.00	2493.45
287.00	2445.86
288.00	2455.22
289.00	2452.88
290.00	2520.76
291.00	2520.76
292.00	2534.80
293.00	2590.97
294.00	2598.77
295.00	2569.13
296.00	2558.99
297.00	2615.94
298.00	2678.35
299.00	2637.00
300.00	2606.58
301.00	2571.47
302.00	2622.18
303.00	2679.91
304.00	2696.30
305.00	2706.44
306.00	2646.37
307.00	2663.53
308.00	2640.12
309.00	2709.56
310.00	2698.64
311.00	2707.22
312.00	2676.01
313.00	2725.16
314.00	2751.69
315.00	2768.85
316.00	2742.33
317.00	2758.71
318.00	2716.58
319.00	2742.33
320.00	2776.66
321.00	2853.11
322.00	2833.61
323.00	2821.13
324.00	2858.57
325.00	2916.31
326.00	2928.79
327.00	2949.86
328.00	2940.49
329.00	2965.46
330.00	2974.04
331.00	2989.64
332.00	3027.87
333.00	2986.52
334.00	3045.04
335.00	3039.58
336.00	3098.09
337.00	3069.22
338.00	3049.72
339.00	3032.55
340.00	3055.18
341.00	3109.79
342.00	3137.10
343.00	3187.81
344.00	3216.68
345.00	3236.18
346.00	3235.40
347.00	3228.38
348.00	3226.04
349.00	3197.17
350.00	3160.50
351.00	3234.62
352.00	3283.77
353.00	3333.70
354.00	3308.74
355.00	3314.98
356.00	3275.97
357.00	3314.98
358.00	3310.30
359.00	3363.35
360.00	3350.87
361.00	3403.92
362.00	3407.04
363.00	3393.00
364.00	3385.19
365.00	3464.77
366.00	3471.01
367.00	3487.40
368.00	3471.01
369.00	3497.54
370.00	3532.65
371.00	3527.97
372.00	3535.77
373.00	3533.43
374.00	3535.77
375.00	3550.59
376.00	3542.01
377.00	3548.25
378.00	3570.10
379.00	3638.75
380.00	3723.79
381.00	3772.94
382.00	3773.72
383.00	3773.72
384.00	3834.58
385.00	3891.53
386.00	3941.46
387.00	3957.85
388.00	3935.22
389.00	3938.34
390.00	3939.90
391.00	3959.41
392.00	3967.21
393.00	4007.78
394.00	4053.03
395.00	4070.97
396.00	4085.80
397.00	4132.61
398.00	4180.98
399.00	4240.27
400.00	4295.66
401.00	4312.83
402.00	4294.88
403.00	4312.05
404.00	4372.12
405.00	4427.51
406.00	4461.84
407.00	4446.24
408.00	4431.41
409.00	4400.99
410.00	4412.69
411.00	4408.01
412.00	4395.53
413.00	4454.82
414.00	4489.93
415.00	4496.95
416.00	4473.54
417.00	4477.44
418.00	4551.56
419.00	4560.92
420.00	4587.45
421.00	4527.38
422.00	4542.20
423.00	4568.73
424.00	4620.22
425.00	4680.29
426.00	4649.86
427.00	4616.32
428.00	4555.46
429.00	4527.38
430.00	4525.82
431.00	4500.07
432.00	4550.00
433.00	4617.10
434.00	4703.70
435.00	4770.01
436.00	4762.21
437.00	4779.37
438.00	4781.71
439.00	4805.90
440.00	4850.37
441.00	4887.04
442.00	4947.89
443.00	4943.99
444.00	4938.53
445.00	4930.73
446.00	4938.53
447.00	4961.16
448.00	4943.99
449.00	4902.64
450.00	4899.52
451.00	4964.28
452.00	5006.41
453.00	4983.78
454.00	4991.58
455.00	5022.79
456.00	5116.41
457.00	5153.86
458.00	5164.78
459.00	5085.98
460.00	5128.89
461.00	5183.51
462.00	5324.72
463.00	5288.05
464.00	5343.44
465.00	5337.20
466.00	5412.88
467.00	5421.46
468.00	5386.35
469.00	5415.22
470.00	5408.98
471.00	5501.82
472.00	5480.75
473.00	5500.26
474.00	5512.74
475.00	5515.86
476.00	5575.16
477.00	5611.82
478.00	5679.70
479.00	5683.60
480.00	5729.63
481.00	5813.89
482.00	5849.78
483.00	5820.13
484.00	5766.30
485.00	5768.64
486.00	5744.45
487.00	5764.74
488.00	5809.21
489.00	5906.73
490.00	5944.18
491.00	5920.00
492.00	5965.25
493.00	5998.79
494.00	6116.60
495.00	6091.63
496.00	6109.58
497.00	6088.51
498.00	6133.76
499.00	6164.19
500.00	6183.70
501.00	6213.34
502.00	6203.20
503.00	6204.76
504.00	6222.70
505.00	6248.45
506.00	6276.54
507.00	6298.38
508.00	6324.91
509.00	6388.10
510.00	6406.05
511.00	6395.90
512.00	6423.99
513.00	6441.93
514.00	6570.66
515.00	6656.48
516.00	6764.93
517.00	6767.27
518.00	6739.18
519.00	6664.29
520.00	6693.15
521.00	6658.04
522.00	6659.60
523.00	6697.05
524.00	6768.83
525.00	6785.21
526.00	6695.49
527.00	6690.03
528.00	6754.79
529.00	6864.79
530.00	6888.98
531.00	6897.56
532.00	6829.68
533.00	6842.95
534.00	6859.33
535.00	6962.31
536.00	6942.81
537.00	6897.56
538.00	6873.37
539.00	6886.64
540.00	6991.18
541.00	7112.89
542.00	7132.39
543.00	7177.64
544.00	7145.66
545.00	7218.21
546.00	7242.40
547.00	7273.60
548.00	7364.11
549.00	7422.62
550.00	7514.68
551.00	7534.96
552.00	7537.31
553.00	7442.12
554.00	7357.08
555.00	7416.38
556.00	7497.52
557.00	7638.73
558.00	7657.45
559.00	7648.09
560.00	7676.96
561.00	7721.43
562.00	7816.61
563.00	7872.00
564.00	7852.50
565.00	7988.25
566.00	8116.98
567.00	8204.36
568.00	8212.16
569.00	8144.28
570.00	8201.24
571.00	8254.29
572.00	8315.14
573.00	8351.03
574.00	8281.60
575.00	8340.89
576.00	8390.04
577.00	8449.33
578.00	8461.04
579.00	8508.63
580.00	8635.80
581.00	8737.22
582.00	8857.37
583.00	8861.27
584.00	8946.31
585.00	8910.42
586.00	9081.28
587.00	9049.29
588.00	9068.02
589.00	9039.15
590.00	9145.25
591.00	9355.90
592.00	9549.39
593.00	9695.28
594.00	9718.68
595.00	9720.24
596.00	9753.79
597.00	9866.92
598.00	9948.84
599.00	10051.82
600.00	10187.57
601.00	10164.95
602.00	10226.58
603.00	10210.20
604.00	10383.40
605.00	10476.24
606.00	10540.21
607.00	10533.97
608.00	10610.43
609.00	10759.44
610.00	10843.70
611.00	10773.49
612.00	10752.42
613.00	10824.20
614.00	10965.41
615.00	11066.05
616.00	11113.64
617.00	11215.85
618.00	11303.23
619.00	11454.58
620.00	11538.84
621.00	11662.89
622.00	11774.46
623.00	11959.36
624.00	12063.12
625.00	12215.26
626.00	12162.20
627.00	12180.93
628.00	12240.22
629.00	12507.04
630.00	12767.62
631.00	12862.80
632.00	12826.14
633.00	12876.07
634.00	13062.53
635.00	13213.88
636.00	13281.76
637.00	13307.51
638.00	13440.92
639.00	13481.49
640.00	13493.97
641.00	13506.45
642.00	13597.73
643.00	13689.79
644.00	13853.63
645.00	13930.09
646.00	14124.35
647.00	14167.26
648.00	14202.37
649.00	14202.37
650.00	14311.60
651.00	14605.72
652.00	14731.33
653.00	14831.19
654.00	14871.76
655.00	15034.82
656.00	15207.24
657.00	15350.01
658.00	15371.08
659.00	15463.92
660.00	15570.02
661.00	15782.23
662.00	15912.52
663.00	16032.67
664.00	16130.97
665.00	16167.64
666.00	16223.81
667.00	16313.53
668.00	16414.18
669.00	16515.60
670.00	16510.14
671.00	16560.07
672.00	16649.01
673.00	16750.43
674.00	16877.60
675.00	16883.84
676.00	17000.87
677.00	16983.71
678.00	17082.01
679.00	17221.66
680.00	17479.12
681.00	17685.09
682.00	17886.37
683.00	18092.34
684.00	18296.75
685.00	18413.77
686.00	18444.20
687.00	18370.08
688.00	18445.76
689.00	18519.88
690.00	18785.92
691.00	18896.71
692.00	18952.10
693.00	18967.70
694.00	19033.24
695.00	19117.50
696.00	19238.42
697.00	19284.45
698.00	19548.93
699.00	19519.29
700.00	19552.84
701.00	19537.23
702.00	19731.50
703.00	19929.66
704.00	20066.19
705.00	20109.88
706.00	20206.62
707.00	20266.70
708.00	20413.37
709.00	20558.49
710.00	20787.08
711.00	20948.57
712.00	21039.86
713.00	21135.82
714.00	21226.32
715.00	21266.11
716.00	21246.60
717.00	21414.34
718.00	21669.46
719.00	21843.44
720.00	21717.05
721.00	21604.70
722.00	21612.51
723.00	21829.40
724.00	21965.15
725.00	21957.35
726.00	21993.23
727.00	22182.82
728.00	22453.54
729.00	22636.10
730.00	22584.61
731.00	22480.07
732.00	22417.65
733.00	22414.53
734.00	22467.58
735.00	22565.10
736.00	22721.92
737.00	22847.53
738.00	22976.26
739.00	23090.95
740.00	23232.94
741.00	23474.79
742.00	23486.50
743.00	23458.41
744.00	23383.51
745.00	23587.92
746.00	23833.68
747.00	23921.84
748.00	23942.90
749.00	23929.64
750.00	23970.21
751.00	24077.87
752.00	24233.91
753.00	24134.82
754.00	24129.36
755.00	24059.15
756.00	24203.48
757.00	24265.89
758.00	24429.73
759.00	24673.15
760.00	24812.80
761.00	24928.27
762.00	24979.76
763.00	25131.89
764.00	25197.43
765.00	25284.03
766.00	25514.18
767.00	25693.62
768.00	25883.20
769.00	25917.53
770.00	26123.50
771.00	26275.63
772.00	26319.32
773.00	26370.04
774.00	26356.77
775.00	26401.24
776.00	26335.71
777.00	26469.12
778.00	26518.27
779.00	26636.08
780.00	26579.90
781.00	26748.42
782.00	26908.36
783.00	27165.82
784.00	27227.45
785.00	27150.21
786.00	27062.83
787.00	27074.54
788.00	27191.56
789.00	27409.23
790.00	27572.29
791.00	27616.76
792.00	27752.51
793.00	27658.89
794.00	27763.43
795.00	27689.32
796.00	27857.84
797.00	28127.00
798.00	28163.67
799.00	28324.38
800.00	28382.12
801.00	28638.01
802.00	28743.34
803.00	28694.19
804.00	28777.67
805.00	28786.25
806.00	28933.70
807.00	28900.15
808.00	29069.45
809.00	29106.90
810.00	29394.79
811.00	29482.17
812.00	29675.65
813.00	29708.42
814.00	29844.95
815.00	30103.97
816.00	30194.47
817.00	30308.38
818.00	30203.05
819.00	30181.99
820.00	30164.82
821.00	30301.36
822.00	30458.17
823.00	30659.46
824.00	30625.91
825.00	30558.81
826.00	30309.16
827.00	30391.86
828.00	30442.57
829.00	30696.91
830.00	30926.28
831.00	31236.79
832.00	31402.19
833.00	31239.91
834.00	31197.00
835.00	31220.41
836.00	31432.61
837.00	31514.53
838.00	31577.73
839.00	31722.84
840.00	31757.17
841.00	31789.16
842.00	31845.33
843.00	32104.35
844.00	32402.38
845.00	32528.77
846.00	32688.70
847.00	32621.61
848.00	32627.07
849.00	32563.09
850.00	32662.18
851.00	32644.23
852.00	32581.04
853.00	32662.96
854.00	32816.65
855.00	33025.74
856.00	32911.83
857.00	32972.69
858.00	32973.47
859.00	33085.03
860.00	33182.56
861.00	33313.62
862.00	33524.27
863.00	33567.18
864.00	33672.51
865.00	33836.34
866.00	33988.48
867.00	34084.44
868.00	34098.48
869.00	34281.05
870.00	34539.29
871.00	34604.04
872.00	34534.60
873.00	34543.19
874.00	34677.38
875.00	34760.08
876.00	34649.29
877.00	34740.57
878.00	34856.04
879.00	34952.78
880.00	34839.65
881.00	34827.17
882.00	34679.72
883.00	34685.18
884.00	34655.53
885.00	34796.74
886.00	34847.46
887.00	34921.57
888.00	34955.90
889.00	35040.16
890.00	35342.09
891.00	35578.48
892.00	35885.09
893.00	35643.24
894.00	35659.62
895.00	35623.73
896.00	35852.33
897.00	35797.71
898.00	35796.93
899.00	36153.48
900.00	36371.92
901.00	36579.45
902.00	36576.33
903.00	36613.78
904.00	36667.61
905.00	36715.20
906.00	36696.48
907.00	36724.57
908.00	36485.05
909.00	36956.28
910.00	36760.45
911.00	36746.41
912.00	36347.74
913.00	36591.16
914.00	36782.30
915.00	37014.79
916.00	36963.30
917.00	37023.37
918.00	37002.31
919.00	36982.02
920.00	37067.84
921.00	37152.88
922.00	37487.58
923.00	37578.08
924.00	37572.62
925.00	37513.33
926.00	37667.80
927.00	37726.32
928.00	37780.93
929.00	37852.70
930.00	38082.08
931.00	38204.56
932.00	38215.49
933.00	38171.02
934.00	38234.99
935.00	38014.98
936.00	38143.71
937.00	38306.77
938.00	38543.94
939.00	38649.27
940.00	38628.98
941.00	38440.96
942.00	38337.98
943.00	38447.20
944.00	38730.40
945.00	38770.97
946.00	38731.19
947.00	38757.71
948.00	38909.85
949.00	38920.77
950.00	38949.64
951.00	38805.30
952.00	38572.03
953.00	38430.82
954.00	38454.22
955.00	38740.55
956.00	39044.04
957.00	39392.78
958.00	39722.01
959.00	39878.05
960.00	39968.55
961.00	39735.27
962.00	39740.74
963.00	39835.92
964.00	40258.77
965.00	40489.71
966.00	40534.96
967.00	40591.91
968.00	40606.73
969.00	40574.75
970.00	40561.48
971.00	40715.96
972.00	40883.70
973.00	40890.72
974.00	40823.62
975.00	40891.50
976.00	40795.54
977.00	40738.58
978.00	40429.63
979.00	40464.74
980.00	40317.29
981.00	40626.24
982.00	40642.62
983.00	40982.00
984.00	41134.92
985.00	41432.94
986.00	41345.56
987.00	41152.08
988.00	41115.41
989.00	41114.63
990.00	41237.90
991.00	41134.14
992.00	41397.84
993.00	41426.70
994.00	41527.34
995.00	41607.70
996.00	41603.80
997.00	41956.44
998.00	42257.59
999.00	42504.91
1000.00	42532.22
1001.00	42355.89
1002.00	42381.64
1003.00	42245.89
1004.00	42317.67
1005.00	42405.83
1006.00	42545.48
1007.00	42615.69
1008.00	42793.57
1009.00	42731.94
1010.00	42575.12
1011.00	42255.25
1012.00	42326.25
1013.00	42442.49
1014.00	42722.58
1015.00	42824.78
1016.00	42859.89
1017.00	43056.50
1018.00	43181.32
1019.00	43444.24
1020.00	43388.85
1021.00	43430.20
1022.00	43112.67
1023.00	42887.98
1024.00	42945.71
1025.00	43342.82
1026.00	43940.44
1027.00	44090.23
1028.00	44286.06
1029.00	44085.55
1030.00	44147.18
1031.00	44123.00
1032.00	44453.01
1033.00	44626.99
1034.00	44577.06
1035.00	44350.03
1036.00	44276.69
1037.00	44282.94
1038.00	44502.95
1039.00	44449.11
1040.00	44712.03
1041.00	44701.89
1042.00	44832.96
1043.00	44889.91
1044.00	45077.16
1045.00	45265.18
1046.00	45285.47
1047.00	45158.30
1048.00	45222.27
1049.00	45132.55
1050.00	45383.77
1051.00	45385.33
1052.00	45674.77
1053.00	45604.56
1054.00	45566.33
1055.00	45413.41
1056.00	45395.47
1057.00	45613.14
1058.00	45826.91
1059.00	45920.53
1060.00	45900.25
1061.00	45691.16
1062.00	45677.11
1063.00	45607.68
1064.00	45668.53
1065.00	45759.81
1066.00	45998.55
1067.00	46224.80
1068.00	46253.67
1069.00	46152.24
1070.00	46070.32
1071.00	46238.84
1072.00	46347.29
1073.00	46502.54
1074.00	46523.61
1075.00	46480.70
1076.00	46413.60
1077.00	46366.79
1078.00	46461.97
1079.00	46678.86
1080.00	46685.11
1081.00	46649.22
1082.00	46588.36
1083.00	46731.14
1084.00	46760.78
1085.00	46720.99
1086.00	46794.33
1087.00	46883.27
1088.00	47164.14
1089.00	47225.77
1090.00	47347.48
1091.00	47272.58
1092.00	47276.48
1093.00	47367.76
1094.00	47526.92
1095.00	47698.56
1096.00	47785.94
1097.00	47775.01
1098.00	47725.86
1099.00	47710.26
1100.00	47761.75
1101.00	47671.25
1102.00	47611.96
1103.00	47594.79
1104.00	47787.50
1105.00	47911.55
1106.00	47803.88
1107.00	47712.60
1108.00	47657.99
1109.00	47847.57
1110.00	48087.09
1111.00	48138.58
1112.00	48232.98
1113.00	47848.35
1114.00	47711.82
1115.00	47629.90
1116.00	47744.59
1117.00	48018.43
1118.00	47926.37
1119.00	48081.63
1120.00	48100.35
1121.00	48270.43
1122.00	48368.73
1123.00	48096.45
1124.00	47947.43
1125.00	47852.25
1126.00	47945.09
1127.00	48009.85
1128.00	47969.28
1129.00	47959.14
1130.00	48179.15
1131.00	48224.40
1132.00	48527.11
1133.00	48447.53
1134.00	48514.62
1135.00	48418.66
1136.00	48389.80
1137.00	48474.84
1138.00	48487.32
1139.00	48605.12
1140.00	48687.82
1141.00	48927.34
1142.00	49038.12
1143.00	48960.11
1144.00	48834.50
1145.00	48616.83
1146.00	48570.02
1147.00	48453.77
1148.00	48655.06
1149.00	48846.98
1150.00	49019.40
1151.00	49038.90
1152.00	49125.50
1153.00	49045.15
1154.00	48948.40
1155.00	48707.33
1156.00	48571.58
1157.00	48501.36
1158.00	48626.19
1159.00	48853.22
1160.00	49091.96
1161.00	49244.09
1162.00	49351.76
1163.00	49457.86
1164.00	49452.40
1165.00	49516.37
1166.00	49455.52
1167.00	49386.86
1168.00	49279.20
1169.00	49082.59
1170.00	49010.04
1171.00	48963.23
1172.00	48930.46
1173.00	48952.30
1174.00	49004.58
1175.00	49132.53
1176.00	49202.74
1177.00	49147.35
1178.00	49129.40
1179.00	49058.41
1180.00	49127.06
1181.00	49402.47
1182.00	49611.56
1183.00	49688.79
1184.00	49679.43
1185.00	49696.59
1186.00	49705.18
1187.00	49698.16
1188.00	49735.60
1189.00	49586.59
1190.00	49514.81
1191.00	49515.59
1192.00	49537.44
1193.00	49451.62
1194.00	49377.50
1195.00	49617.80
1196.00	49747.31
1197.00	49702.06
1198.00	49587.37
1199.00	49530.42
1200.00	49497.65
1201.00	49564.74
1202.00	49581.91
1203.00	49761.35
1204.00	49711.42
1205.00	49885.40
1206.00	49935.33
1207.00	50065.62
1208.00	50010.23
1209.00	49893.20
1210.00	49633.40
1211.00	49453.96
1212.00	49492.19
1213.00	49709.86
1214.00	49579.57
1215.00	49539.78
1216.00	49389.20
1217.00	49623.26
1218.00	49564.74
1219.00	49816.74
1220.00	49902.56
1221.00	49885.40
1222.00	49792.56
1223.00	49801.92
1224.00	49686.45
1225.00	49559.28
1226.00	49535.10
1227.00	49795.68
1228.00	49893.20
1229.00	49716.10
1230.00	49772.27
1231.00	49985.26
1232.00	50195.13
1233.00	50218.53
1234.00	50121.01
1235.00	50189.67
1236.00	50309.82
1237.00	50266.13
1238.00	50343.36
1239.00	50426.84
1240.00	50593.80
1241.00	50680.40
1242.00	50613.30
1243.00	50745.94
1244.00	50697.56
1245.00	50720.97
1246.00	50648.41
1247.00	50735.01
1248.00	50904.31
1249.00	50887.15
1250.00	50799.77
1251.00	50605.50
1252.00	50561.03
1253.00	50666.36
1254.00	50617.21
1255.00	50543.87
1256.00	50359.75
1257.00	50398.76
1258.00	50469.75
1259.00	50337.12
1260.00	50389.39
1261.00	50539.97
1262.00	50896.51
1263.00	51132.90
1264.00	51371.64
1265.00	51578.39
1266.00	51611.93
1267.00	51640.02
1268.00	51707.90
1269.00	51714.14
1270.00	51525.33
1271.00	51371.64
1272.00	51303.76
1273.00	51287.38
1274.00	51238.23
1275.00	51033.04
1276.00	51109.50
1277.00	51050.20
1278.00	51249.93
1279.00	51302.20
1280.00	51332.63
1281.00	51437.95
1282.00	51436.39
1283.00	51618.95
1284.00	51574.48
1285.00	51614.27
1286.00	51650.16
1287.00	51687.61
1288.00	51643.92
1289.00	51686.83
1290.00	51751.59
1291.00	51918.54
1292.00	52052.73
1293.00	52123.73
1294.00	52080.04
1295.00	52061.32
1296.00	52078.48
1297.00	52016.85
1298.00	51835.06
1299.00	51583.85
1300.00	51512.85
1301.00	51584.63
1302.00	51689.17
1303.00	51817.90
1304.00	51909.18
1305.00	52007.48
1306.00	52044.93
1307.00	51909.96
1308.00	51897.48
1309.00	51807.76
1310.00	51870.17
1311.00	51992.66
1312.00	52112.81
1313.00	52165.86
1314.00	52106.57
1315.00	52259.48
1316.00	52370.27
1317.00	52520.84
1318.00	52383.53
1319.00	52315.65
1320.00	52264.94
1321.00	52428.00
1322.00	52502.12
1323.00	52535.66
1324.00	52569.21
1325.00	52477.15
1326.00	52545.03
1327.00	52657.37
1328.00	52860.22
1329.00	52956.18
1330.00	52965.54
1331.00	53006.89
1332.00	52821.99
1333.00	52653.47
1334.00	52387.43
1335.00	52337.50
1336.00	52243.10
1337.00	52277.43
1338.00	52291.47
1339.00	52297.71
1340.00	52245.44
1341.00	52323.46
1342.00	52441.26
1343.00	52604.32
1344.00	52601.20
1345.00	52621.48
1346.00	52553.61
1347.00	52680.78
1348.00	52605.10
1349.00	52687.80
1350.00	52559.07
1351.00	52504.46
1352.00	52311.75
1353.00	52278.21
1354.00	52399.13
1355.00	52622.26
1356.00	52725.25
1357.00	52810.29
1358.00	52758.02
1359.00	52786.10
1360.00	52801.71
1361.00	52903.91
1362.00	52878.94
1363.00	52846.96
1364.00	52665.95
1365.00	52744.75
1366.00	52676.10
1367.00	52812.63
1368.00	52791.56
1369.00	53004.55
1370.00	53167.61
1371.00	53168.39
1372.00	52993.63
1373.00	52909.37
1374.00	52987.39
1375.00	53123.14
1376.00	53126.26
1377.00	53041.22
1378.00	52887.53
1379.00	52825.11
1380.00	52857.10
1381.00	52864.90
1382.00	52791.56
1383.00	52658.15
1384.00	52655.81
1385.00	52574.67
1386.00	52487.29
1387.00	52363.25
1388.00	52403.81
1389.00	52365.59
1390.00	52485.73
1391.00	52543.47
1392.00	52726.03
1393.00	52726.81
1394.00	52801.71
1395.00	52858.66
1396.00	52942.14
1397.00	52766.60
1398.00	52584.04
1399.00	52452.19
1400.00	52602.76
1401.00	52584.82
1402.00	52597.30
1403.00	52519.28
1404.00	52600.42
1405.00	52619.92
1406.00	52645.67
1407.00	52624.60
1408.00	52555.95
1409.00	52566.09
1410.00	52677.66
1411.00	52845.40
1412.00	52903.13
1413.00	52952.28
1414.00	53062.29
1415.00	53179.31
1416.00	53155.91
1417.00	53023.28
1418.00	52939.02
1419.00	52906.25
1420.00	53031.86
1421.00	53066.19
1422.00	53209.74
1423.00	53004.55
1424.00	53088.03
1425.00	52985.83
1426.00	53057.60
1427.00	52969.44
1428.00	52942.14
1429.00	52837.59
1430.00	52875.04
1431.00	52885.18
1432.00	52921.85
1433.00	52580.13
1434.00	52450.63
1435.00	52257.92
1436.00	52232.96
1437.00	52126.85
1438.00	52229.83
1439.00	52253.24
1440.00	52373.39
1441.00	52332.04
1442.00	52384.31
1443.00	52269.62
1444.00	52224.37
1445.00	52343.74
1446.00	52484.95
1447.00	52651.13
1448.00	52630.85
1449.00	52623.82
1450.00	52712.77
1451.00	52844.62
1452.00	52882.06
1453.00	52854.76
1454.00	52676.10
1455.00	52581.70
1456.00	52444.38
1457.00	52490.41
1458.00	52552.05
1459.00	52471.69
1460.00	52438.92
1461.00	52344.52
1462.00	52428.00
1463.00	52470.13
1464.00	52506.80
1465.00	52513.82
1466.00	52435.02
1467.00	52354.66
1468.00	52200.19
1469.00	52271.18
1470.00	52381.19
1471.00	52529.42
1472.00	52382.75
1473.00	52378.85
1474.00	52427.22
1475.00	52488.85
1476.00	52520.06
1477.00	52534.88
1478.00	52587.16
1479.00	52499.00
1480.00	52367.93
1481.00	52326.58
1482.00	52321.12
1483.00	52239.98
1484.00	52137.77
1485.00	52000.46
1486.00	52015.29
1487.00	52058.98
1488.00	52030.89
1489.00	51940.39
1490.00	51814.78
1491.00	51949.75
1492.00	52028.55
1493.00	52134.65
1494.00	52110.47
1495.00	52256.36
1496.00	52256.36
1497.00	52253.24
1498.00	52163.52
1499.00	52133.87
1500.00	52154.94
1501.00	52201.75
1502.00	52227.49
1503.00	52120.61
1504.00	52064.44
1505.00	52069.12
1506.00	52068.34
1507.00	51947.41
1508.00	51703.21
1509.00	51808.54
1510.00	51908.40
1511.00	52175.22
1512.00	52172.10
1513.00	52072.24
1514.00	51968.47
1515.00	51933.37
1516.00	51787.47
1517.00	51757.83
1518.00	51637.68
1519.00	51776.55
1520.00	51799.18
1521.00	51753.15
1522.00	51714.14
1523.00	51700.09
1524.00	51739.10
1525.00	51701.65
1526.00	51519.87
1527.00	51328.73
1528.00	51342.77
1529.00	51519.09
1530.00	51590.87
1531.00	51544.84
1532.00	51425.47
1533.00	51625.20
1534.00	51720.38
1535.00	51835.84
1536.00	51814.00
1537.00	51929.47
1538.00	52032.45
1539.00	52044.15
1540.00	51895.92
1541.00	51704.77
1542.00	51708.68
1543.00	51851.45
1544.00	51984.08
1545.00	51911.52
1546.00	51871.73
1547.00	51777.33
1548.00	51667.33
1549.00	51601.79
1550.00	51659.52
1551.00	51724.28
1552.00	51614.27
1553.00	51618.17
1554.00	51577.61
1555.00	51526.11
1556.00	51525.33
1557.00	51561.22
1558.00	51706.33
1559.00	51634.56
1560.00	51432.49
1561.00	51211.70
1562.00	51060.35
1563.00	51173.47
1564.00	51228.87
1565.00	51240.57
1566.00	51082.97
1567.00	51063.47
1568.00	50777.14
1569.00	50764.66
1570.00	50534.51
1571.00	50594.58
1572.00	50504.86
1573.00	50653.87
1574.00	50851.26
1575.00	50887.93
1576.00	50767.00
1577.00	50575.86
1578.00	50622.67
1579.00	50621.89
1580.00	50730.33
1581.00	50816.15
1582.00	51001.05
1583.00	51165.67
1584.00	51113.40
1585.00	51068.15
1586.00	50835.66
1587.00	50633.59
1588.00	50674.94
1589.00	50826.29
1590.00	51081.41
1591.00	50916.01
1592.00	50771.68
1593.00	50662.46
1594.00	50774.02
1595.00	50717.85
1596.00	50721.75
1597.00	50645.29
1598.00	50646.85
1599.00	50546.21
1600.00	50476.77
1601.00	50423.72
1602.00	50419.82
1603.00	50367.55
1604.00	50419.04
1605.00	50351.94
1606.00	50312.94
1607.00	50194.35
1608.00	50139.74
1609.00	50102.29
1610.00	50101.51
1611.00	50248.18
1612.00	50387.05
1613.00	50494.72
1614.00	50515.00
1615.00	50495.50
1616.00	50451.03
1617.00	50519.68
1618.00	50686.64
1619.00	50809.13
1620.00	50897.29
1621.00	50899.63
1622.00	50969.07
1623.00	50841.12
1624.00	50651.53
1625.00	50475.99
1626.00	50283.29
1627.00	50123.35
1628.00	50188.89
1629.00	50386.27
1630.00	50543.87
1631.00	50380.03
1632.00	50293.43
1633.00	50390.17
1634.00	50503.30
1635.00	50500.96
1636.00	50270.81
1637.00	50053.14
1638.00	49783.97
1639.00	49759.01
1640.00	49764.47
1641.00	49838.59
1642.00	49653.68
1643.00	49625.60
1644.00	49606.87
1645.00	49743.41
1646.00	49854.97
1647.00	49861.21
1648.00	49977.46
1649.00	49860.43
1650.00	49855.75
1651.00	49666.17
1652.00	49672.41
1653.00	49592.05
1654.00	49526.52
1655.00	49446.94
1656.00	49432.11
1657.00	49624.04
1658.00	49681.77
1659.00	49546.80
1660.00	49457.08
1661.00	49338.49
1662.00	49497.65
1663.00	49457.86
1664.00	49730.92
1665.00	49822.98
1666.00	49897.88
1667.00	49705.96
1668.00	49752.77
1669.00	49651.34
1670.00	49555.38
1671.00	49248.77
1672.00	49174.66
1673.00	49254.23
1674.00	49516.37
1675.00	49702.84
1676.00	49809.72
1677.00	49641.98
1678.00	49521.05
1679.00	49340.83
1680.00	49315.87
1681.00	49045.93
1682.00	48964.01
1683.00	48942.16
1684.00	49041.24
1685.00	49138.77
1686.00	49145.79
1687.00	49484.39
1688.00	49320.55
1689.00	49311.19
1690.00	48986.63
1691.00	49062.31
1692.00	48885.21
1693.00	48673.00
1694.00	48325.04
1695.00	48225.96
1696.00	48289.15
1697.00	48569.24
1698.00	48700.31
1699.00	48858.68
1700.00	48929.68
1701.00	49035.78
1702.00	49131.75
1703.00	49166.07
1704.00	49134.87
1705.00	48995.99
1706.00	48896.91
1707.00	48771.30
1708.00	48741.66
1709.00	48718.25
1710.00	48568.46
1711.00	48326.60
1712.00	47902.96
1713.00	47785.16
1714.00	47849.91
1715.00	48123.75
1716.00	48188.51
1717.00	48197.87
1718.00	48206.45
1719.00	48293.05
1720.00	48153.40
1721.00	47882.68
1722.00	47715.72
1723.00	47771.11
1724.00	47888.92
1725.00	48014.53
1726.00	47885.02
1727.00	47856.93
1728.00	47541.74
1729.00	47347.48
1730.00	47199.24
1731.00	47239.81
1732.00	47203.14
1733.00	46888.73
1734.00	46679.64
1735.00	46608.65
1736.00	46698.37
1737.00	46756.10
1738.00	46820.86
1739.00	46855.18
1740.00	46755.32
1741.00	46518.93
1742.00	46369.13
1743.00	46158.49
1744.00	46010.25
1745.00	45815.21
1746.00	45819.89
1747.00	45748.11
1748.00	45688.04
1749.00	45749.67
1750.00	45714.56
1751.00	45588.17
1752.00	45300.29
1753.00	45083.40
1754.00	44895.38
1755.00	44727.64
1756.00	44718.28
1757.00	44651.18
1758.00	44733.10
1759.00	44671.46
1760.00	44740.12
1761.00	44690.97
1762.00	44683.95
1763.00	44552.88
1764.00	44429.61
1765.00	44340.67
1766.00	44323.51
1767.00	44184.63
1768.00	44137.04
1769.00	44168.25
1770.00	44375.78
1771.00	44369.54
1772.00	44236.91
1773.00	43948.24
1774.00	43763.34
1775.00	43558.15
1776.00	43554.25
1777.00	43427.86
1778.00	43518.36
1779.00	43476.23
1780.00	43465.31
1781.00	43299.91
1782.00	43120.47
1783.00	42844.29
1784.00	42692.93
1785.00	42559.52
1786.00	42664.85
1787.00	42772.51
1788.00	42474.48
1789.00	42277.10
1790.00	41848.78
1791.00	41908.07
1792.00	41662.32
1793.00	41528.13
1794.00	41294.85
1795.00	41194.21
1796.00	41104.49
1797.00	40946.11
1798.00	40780.71
1799.00	40563.82
1800.00	40442.90
1801.00	40152.67
1802.00	39999.76
1803.00	39728.25
1804.00	39710.31
1805.00	39602.64
1806.00	39427.10
1807.00	39366.25
1808.00	39285.89
1809.00	39427.88
1810.00	39376.39
1811.00	39212.56
1812.00	39105.67
1813.00	39004.25
1814.00	38891.90
1815.00	38736.65
1816.00	38562.67
1817.00	38461.24
1818.00	38292.72
1819.00	38171.80
1820.00	37969.73
1821.00	37814.48
1822.00	37724.75
1823.00	37531.27
1824.00	37351.83
1825.00	37180.97
1826.00	37152.88
1827.00	37150.54
1828.00	37049.12
1829.00	37060.82
1830.00	36455.40
1831.00	36228.37
1832.00	36016.94
1833.00	36111.35
1834.00	35903.04
1835.00	35588.63
1836.00	35396.70
1837.00	35211.80
1838.00	34879.44
1839.00	34675.82
1840.00	34426.94
1841.00	34344.24
1842.00	34139.05
1843.00	33808.26
1844.00	33512.57
1845.00	33295.68
1846.00	33093.61
1847.00	33002.33
1848.00	32799.49
1849.00	32720.69
1850.00	32581.82
1851.00	32439.04
1852.00	32300.17
1853.00	32175.34
1854.00	32106.69
1855.00	31922.57
1856.00	31696.31
1857.00	31491.13
1858.00	31420.91
1859.00	31216.50
1860.00	31023.02
1861.00	30774.14
1862.00	30622.01
1863.00	30492.50
1864.00	30433.21
1865.00	30370.01
1866.00	30112.55
1867.00	30020.49
1868.00	29850.41
1869.00	29732.61
1870.00	29303.51
1871.00	28843.98
1872.00	28584.18
1873.00	28307.22
1874.00	28365.73
1875.00	28142.60
1876.00	28192.53
1877.00	27893.72
1878.00	27744.71
1879.00	27493.49
1880.00	27301.57
1881.00	27119.79
1882.00	26940.35
1883.00	26805.38
1884.00	26707.85
1885.00	26515.93
1886.00	26306.84
1887.00	26126.62
1888.00	25990.87
1889.00	26025.20
1890.00	25861.36
1891.00	25766.18
1892.00	25421.34
1893.00	25208.35
1894.00	24955.57
1895.00	24921.24
1896.00	24744.92
1897.00	24598.25
1898.00	24374.34
1899.00	24401.65
1900.00	24425.83
1901.00	24326.75
1902.00	24163.69
1903.00	23979.57
1904.00	23865.66
1905.00	23710.41
1906.00	23447.49
1907.00	23258.68
1908.00	23206.41
1909.00	23087.82
1910.00	22919.31
1911.00	22577.59
1912.00	22396.59
1913.00	22173.46
1914.00	22006.50
1915.00	21884.79
1916.00	21728.75
1917.00	21531.37
1918.00	21294.97
1919.00	21112.41
1920.00	20995.39
1921.00	20955.60
1922.00	20835.45
1923.00	20727.00
1924.00	20437.56
1925.00	20355.64
1926.00	20139.53
1927.00	19918.74
1928.00	19791.57
1929.00	19734.62
1930.00	19805.61
1931.00	19728.38
1932.00	19612.13
1933.00	19446.73
1934.00	19305.52
1935.00	19136.22
1936.00	18938.83
1937.00	18778.90
1938.00	18717.26
1939.00	18595.56
1940.00	18400.51
1941.00	18248.38
1942.00	18142.27
1943.00	18088.44
1944.00	17985.46
1945.00	17923.82
1946.00	17842.68
1947.00	17706.93
1948.00	17490.04
1949.00	17263.79
1950.00	17124.92
1951.00	17089.81
1952.00	17010.23
1953.00	16865.90
1954.00	16751.99
1955.00	16624.83
1956.00	16491.41
1957.00	16315.87
1958.00	16228.49
1959.00	16186.36
1960.00	16154.38
1961.00	16095.86
1962.00	15925.79
1963.00	15779.11
1964.00	15587.97
1965.00	15524.77
1966.00	15366.40
1967.00	15306.32
1968.00	15231.43
1969.00	15115.96
1970.00	14964.61
1971.00	14739.91
1972.00	14709.49
1973.00	14723.53
1974.00	14744.59
1975.00	14626.01
1976.00	14508.20
1977.00	14356.07
1978.00	14251.52
1979.00	14029.17
1980.00	14007.33
1981.00	13903.56
1982.00	13910.58
1983.00	13800.58
1984.00	13740.50
1985.00	13632.84
1986.00	13525.18
1987.00	13461.98
1988.00	13419.07
1989.00	13316.09
1990.00	13089.84
1991.00	12926.00
1992.00	12863.58
1993.00	12777.76
1994.00	12746.56
1995.00	12617.05
1996.00	12624.07
1997.00	12429.02
1998.00	12431.37
1999.00	12326.82
2000.00	12329.16
2001.00	12189.51
2002.00	12162.98
2003.00	12112.27
2004.00	12026.45
2005.00	11917.23
2006.00	11777.58
2007.00	11681.61
2008.00	11634.80
2009.00	11594.23
2010.00	11619.98
2011.00	11552.10
2012.00	11577.07
2013.00	11477.21
2014.00	11415.57
2015.00	11250.96
2016.00	11211.95
2017.00	11112.86
2018.00	11062.15
2019.00	10892.85
2020.00	10873.35
2021.00	10866.33
2022.00	10897.53
2023.00	10823.42
2024.00	10766.46
2025.00	10654.12
2026.00	10651.78
2027.00	10571.42
2028.00	10524.61
2029.00	10484.82
2030.00	10479.36
2031.00	10335.81
2032.00	10290.56
2033.00	10177.43
2034.00	10195.37
2035.00	10111.89
2036.00	9982.38
2037.00	9955.86
2038.00	9809.19
2039.00	9834.15
2040.00	9774.08
2041.00	9760.03
2042.00	9666.41
2043.00	9604.78
2044.00	9542.36
2045.00	9557.19
2046.00	9533.00
2047.00	9479.17
>>>>>End Processed Spectral Data<<<<<
