SpectraSuite Data File
++++++++++++++++++++++++++++++++++++
Date: Thu Nov 16 14:01:37 EST 2017
User: cheriyan
Dark Spectrum Present: No
Reference Spectrum Present: No
Number of Sampled Component Spectra: 1
Spectrometers: USB2+H05261
Integration Time (usec): 100000 (USB2+H05261)
Spectra Averaged: 1 (USB2+H05261)
Boxcar Smoothing: 1 (USB2+H05261)
Correct for Electrical Dark: No (USB2+H05261)
Strobe/Lamp Enabled: No (USB2+H05261)
Correct for Detector Non-linearity: No (USB2+H05261)
Correct for Stray Light: No (USB2+H05261)
Number of Pixels in Processed Spectrum: 2048
>>>>>Begin Processed Spectral Data<<<<<
0.00	360.44
1.00	360.44
2.00	324.55
3.00	302.71
4.00	245.76
5.00	247.32
6.00	219.23
7.00	255.12
8.00	244.98
9.00	257.46
10.00	260.58
11.00	247.32
12.00	255.12
13.00	238.73
14.00	271.50
15.00	252.78
16.00	229.37
17.00	213.77
18.00	232.49
19.00	248.88
20.00	287.11
21.00	291.01
22.00	335.48
23.00	378.39
24.00	529.74
25.00	684.22
26.00	801.24
27.00	823.87
28.00	807.48
29.00	833.23
30.00	838.69
31.00	862.88
32.00	862.10
33.00	890.96
34.00	890.18
35.00	887.06
36.00	915.15
37.00	913.59
38.00	884.72
39.00	858.20
40.00	896.43
41.00	936.21
42.00	942.46
43.00	951.04
44.00	971.32
45.00	973.66
46.00	955.72
47.00	946.36
48.00	943.24
49.00	969.76
50.00	983.02
51.00	1013.45
52.00	1015.01
53.00	1022.81
54.00	1002.53
55.00	999.41
56.00	970.54
57.00	1002.53
58.00	1022.03
59.00	1048.56
60.00	1030.62
61.00	1021.25
62.00	1021.25
63.00	1004.87
64.00	993.17
65.00	993.95
66.00	1034.52
67.00	1044.66
68.00	1063.38
69.00	1048.56
70.00	1061.82
71.00	1057.92
72.00	1068.84
73.00	1059.48
74.00	1078.21
75.00	1078.21
76.00	1071.97
77.00	1040.76
78.00	1070.40
79.00	1096.15
80.00	1105.51
81.00	1064.94
82.00	1100.83
83.00	1123.46
84.00	1155.44
85.00	1139.06
86.00	1142.96
87.00	1160.91
88.00	1175.73
89.00	1188.99
90.00	1171.05
91.00	1173.39
92.00	1153.88
93.00	1192.89
94.00	1175.73
95.00	1205.38
96.00	1213.18
97.00	1249.07
98.00	1238.14
99.00	1206.16
100.00	1189.77
101.00	1200.69
102.00	1237.36
103.00	1261.55
104.00	1279.49
105.00	1267.79
106.00	1246.73
107.00	1240.48
108.00	1229.56
109.00	1272.47
110.00	1295.88
111.00	1327.86
112.00	1301.34
113.00	1288.86
114.00	1299.00
115.00	1311.48
116.00	1337.23
117.00	1349.71
118.00	1363.75
119.00	1358.29
120.00	1373.89
121.00	1373.11
122.00	1386.38
123.00	1383.26
124.00	1400.42
125.00	1391.06
126.00	1407.44
127.00	1428.51
128.00	1468.30
129.00	1471.42
130.00	1461.27
131.00	1482.34
132.00	1461.27
133.00	1491.70
134.00	1494.82
135.00	1533.05
136.00	1514.33
137.00	1509.65
138.00	1501.06
139.00	1518.23
140.00	1488.58
141.00	1514.33
142.00	1532.27
143.00	1595.47
144.00	1608.73
145.00	1618.09
146.00	1621.99
147.00	1642.28
148.00	1637.59
149.00	1623.55
150.00	1656.32
151.00	1713.27
152.00	1763.20
153.00	1756.18
154.00	1742.92
155.00	1722.63
156.00	1721.07
157.00	1739.80
158.00	1764.76
159.00	1732.00
160.00	1734.34
161.00	1730.44
162.00	1766.32
163.00	1771.01
164.00	1801.43
165.00	1812.35
166.00	1823.28
167.00	1800.65
168.00	1840.44
169.00	1842.00
170.00	1889.59
171.00	1876.33
172.00	1861.51
173.00	1839.66
174.00	1842.00
175.00	1914.56
176.00	1941.86
177.00	1962.93
178.00	1972.29
179.00	1959.03
180.00	1969.17
181.00	1916.12
182.00	1976.97
183.00	2013.64
184.00	2054.21
185.00	2002.72
186.00	1994.92
187.00	1988.68
188.00	2042.51
189.00	2056.55
190.00	2126.77
191.00	2130.67
192.00	2129.89
193.00	2125.99
194.00	2155.63
195.00	2162.66
196.00	2142.37
197.00	2128.33
198.00	2126.77
199.00	2164.22
200.00	2195.42
201.00	2213.37
202.00	2207.13
203.00	2191.52
204.00	2218.05
205.00	2246.91
206.00	2260.96
207.00	2317.91
208.00	2346.00
209.00	2407.63
210.00	2395.15
211.00	2383.45
212.00	2381.10
213.00	2350.68
214.00	2377.20
215.00	2384.23
216.00	2424.01
217.00	2422.45
218.00	2381.89
219.00	2392.03
220.00	2428.70
221.00	2524.66
222.00	2536.36
223.00	2544.94
224.00	2537.92
225.00	2570.69
226.00	2566.01
227.00	2620.62
228.00	2638.56
229.00	2632.32
230.00	2595.65
231.00	2562.11
232.00	2591.75
233.00	2602.68
234.00	2663.53
235.00	2685.37
236.00	2700.20
237.00	2732.19
238.00	2751.69
239.00	2734.53
240.00	2705.66
241.00	2710.34
242.00	2790.70
243.00	2793.82
244.00	2839.07
245.00	2821.13
246.00	2867.94
247.00	2892.90
248.00	2956.88
249.00	2975.60
250.00	3018.51
251.00	3033.33
252.00	3092.63
253.00	3084.83
254.00	3096.53
255.00	3101.99
256.00	3129.30
257.00	3147.24
258.00	3183.91
259.00	3173.77
260.00	3193.27
261.00	3201.85
262.00	3223.70
263.00	3247.88
264.00	3279.09
265.00	3330.58
266.00	3346.97
267.00	3326.68
268.00	3381.29
269.00	3368.81
270.00	3428.10
271.00	3383.63
272.00	3475.70
273.00	3543.57
274.00	3614.57
275.00	3595.06
276.00	3576.34
277.00	3527.19
278.00	3510.80
279.00	3489.74
280.00	3563.08
281.00	3604.42
282.00	3637.19
283.00	3630.95
284.00	3652.02
285.00	3712.87
286.00	3717.55
287.00	3716.77
288.00	3713.65
289.00	3766.70
290.00	3808.83
291.00	3822.88
292.00	3840.04
293.00	3889.19
294.00	3886.07
295.00	3879.83
296.00	3875.15
297.00	3897.77
298.00	3953.16
299.00	3944.58
300.00	3911.82
301.00	3872.03
302.00	3827.56
303.00	3921.96
304.00	3971.11
305.00	4088.14
306.00	4060.05
307.00	4046.79
308.00	3988.27
309.00	3993.73
310.00	4038.98
311.00	4136.51
312.00	4134.17
313.00	4129.49
314.00	4091.26
315.00	4075.65
316.00	4081.89
317.00	4056.15
318.00	4102.96
319.00	4083.45
320.00	4115.44
321.00	4162.25
322.00	4201.26
323.00	4244.95
324.00	4277.72
325.00	4344.81
326.00	4402.55
327.00	4434.54
328.00	4430.63
329.00	4438.44
330.00	4414.25
331.00	4378.36
332.00	4361.98
333.00	4374.46
334.00	4439.22
335.00	4502.41
336.00	4532.06
337.00	4570.29
338.00	4585.11
339.00	4585.89
340.00	4572.63
341.00	4583.55
342.00	4663.91
343.00	4730.22
344.00	4783.27
345.00	4798.88
346.00	4876.90
347.00	4880.02
348.00	4917.47
349.00	4883.92
350.00	4912.00
351.00	4928.39
352.00	4913.56
353.00	4894.06
354.00	4888.60
355.00	4951.79
356.00	5002.50
357.00	5053.22
358.00	5018.89
359.00	5037.61
360.00	5059.46
361.00	5135.92
362.00	5180.39
363.00	5211.59
364.00	5275.57
365.00	5269.33
366.00	5277.91
367.00	5261.52
368.00	5263.08
369.00	5316.92
370.00	5305.99
371.00	5369.19
372.00	5319.26
373.00	5342.66
374.00	5331.74
375.00	5345.00
376.00	5399.62
377.00	5459.69
378.00	5520.54
379.00	5618.85
380.00	5699.20
381.00	5772.54
382.00	5760.84
383.00	5744.45
384.00	5748.36
385.00	5767.86
386.00	5813.11
387.00	5920.00
388.00	5928.58
389.00	5983.19
390.00	5974.61
391.00	6048.72
392.00	6108.80
393.00	6167.31
394.00	6201.64
395.00	6195.40
396.00	6200.86
397.00	6315.55
398.00	6375.62
399.00	6433.35
400.00	6452.86
401.00	6522.29
402.00	6606.55
403.00	6623.72
404.00	6600.31
405.00	6579.25
406.00	6600.31
407.00	6650.24
408.00	6568.32
409.00	6558.18
410.00	6618.25
411.00	6794.58
412.00	6775.85
413.00	6749.32
414.00	6721.24
415.00	6737.62
416.00	6771.95
417.00	6781.31
418.00	6871.81
419.00	6915.50
420.00	6896.78
421.00	6931.89
422.00	6908.48
423.00	6896.78
424.00	6855.43
425.00	6895.22
426.00	7003.66
427.00	7052.03
428.00	7099.62
429.00	7086.36
430.00	7080.12
431.00	7055.94
432.00	7031.75
433.00	7033.31
434.00	7049.69
435.00	7155.02
436.00	7216.65
437.00	7261.90
438.00	7242.40
439.00	7233.04
440.00	7288.43
441.00	7328.22
442.00	7446.02
443.00	7467.09
444.00	7520.92
445.00	7524.04
446.00	7541.21
447.00	7663.69
448.00	7685.54
449.00	7716.75
450.00	7703.48
451.00	7801.01
452.00	7851.72
453.00	7853.28
454.00	7868.88
455.00	7910.23
456.00	7988.25
457.00	8033.50
458.00	7979.67
459.00	7974.21
460.00	7964.84
461.00	7994.49
462.00	7964.84
463.00	7881.36
464.00	7962.50
465.00	8021.02
466.00	8138.04
467.00	8218.40
468.00	8262.87
469.00	8341.67
470.00	8331.53
471.00	8419.69
472.00	8341.67
473.00	8357.27
474.00	8383.80
475.00	8535.15
476.00	8605.37
477.00	8641.26
478.00	8720.84
479.00	8845.66
480.00	8823.04
481.00	8834.74
482.00	8767.65
483.00	8850.35
484.00	8874.53
485.00	8941.63
486.00	8992.34
487.00	9056.31
488.00	9051.63
489.00	9085.18
490.00	9082.84
491.00	9132.77
492.00	9158.52
493.00	9167.10
494.00	9271.64
495.00	9265.40
496.00	9346.54
497.00	9307.53
498.00	9352.00
499.00	9357.46
500.00	9387.89
501.00	9440.16
502.00	9533.00
503.00	9634.43
504.00	9715.56
505.00	9724.15
506.00	9716.34
507.00	9770.96
508.00	9796.70
509.00	9837.27
510.00	9842.73
511.00	9969.90
512.00	10100.97
513.00	10144.66
514.00	10096.29
515.00	10065.86
516.00	10184.45
517.00	10213.32
518.00	10285.09
519.00	10180.55
520.00	10320.98
521.00	10313.96
522.00	10367.79
523.00	10283.53
524.00	10349.07
525.00	10441.13
526.00	10397.44
527.00	10420.06
528.00	10448.93
529.00	10631.49
530.00	10676.74
531.00	10686.11
532.00	10590.14
533.00	10544.11
534.00	10588.58
535.00	10654.90
536.00	10784.41
537.00	10730.58
538.00	10823.42
539.00	10895.97
540.00	10981.01
541.00	10969.31
542.00	10934.20
543.00	11028.60
544.00	11009.88
545.00	11074.63
546.00	11043.43
547.00	11213.51
548.00	11319.61
549.00	11484.23
550.00	11588.77
551.00	11672.25
552.00	11648.85
553.00	11591.11
554.00	11605.94
555.00	11672.25
556.00	11722.96
557.00	11749.49
558.00	11802.54
559.00	11904.74
560.00	12001.49
561.00	12158.30
562.00	12266.75
563.00	12309.66
564.00	12371.29
565.00	12438.39
566.00	12582.72
567.00	12537.47
568.00	12546.83
569.00	12409.52
570.00	12528.89
571.00	12564.00
572.00	12652.16
573.00	12684.92
574.00	12863.58
575.00	13080.47
576.00	13310.63
577.00	13323.89
578.00	13428.43
579.00	13329.35
580.00	13451.06
581.00	13425.31
582.00	13628.94
583.00	13742.07
584.00	13957.39
585.00	14110.31
586.00	14229.68
587.00	14182.09
588.00	14093.15
589.00	14115.77
590.00	14299.89
591.00	14559.69
592.00	14848.36
593.00	14980.99
594.00	15054.33
595.00	15129.22
596.00	15275.90
597.00	15481.86
598.00	15529.45
599.00	15666.77
600.00	15776.77
601.00	15864.93
602.00	15897.70
603.00	15949.97
604.00	16177.78
605.00	16606.88
606.00	16750.43
607.00	16868.24
608.00	16768.38
609.00	16798.02
610.00	16833.13
611.00	16869.80
612.00	17028.96
613.00	17187.33
614.00	17337.91
615.00	17478.34
616.00	17605.51
617.00	17762.33
618.00	17848.93
619.00	18009.64
620.00	18175.82
621.00	18460.59
622.00	18586.19
623.00	18900.61
624.00	18944.30
625.00	19051.96
626.00	19027.00
627.00	19241.54
628.00	19392.90
629.00	19664.40
630.00	19877.39
631.00	20048.25
632.00	20000.66
633.00	20247.97
634.00	20457.84
635.00	20666.93
636.00	20780.84
637.00	21144.40
638.00	21411.22
639.00	21397.18
640.00	21346.47
641.00	21443.21
642.00	21759.18
643.00	21960.47
644.00	22160.19
645.00	22189.84
646.00	22362.26
647.00	22413.75
648.00	22770.29
649.00	22877.18
650.00	23056.62
651.00	23179.89
652.00	23244.64
653.00	23463.87
654.00	23550.47
655.00	23843.04
656.00	23978.01
657.00	24127.02
658.00	24283.06
659.00	24524.91
660.00	24723.86
661.00	24860.39
662.00	25042.17
663.00	25256.72
664.00	25365.95
665.00	25415.88
666.00	25515.74
667.00	25838.73
668.00	26075.91
669.00	26214.78
670.00	26241.31
671.00	26367.70
672.00	26470.68
673.00	26580.68
674.00	26753.88
675.00	27003.54
676.00	27229.01
677.00	27361.64
678.00	27398.31
679.00	27561.37
680.00	27820.39
681.00	28164.45
682.00	28407.08
683.00	28478.08
684.00	28593.54
685.00	28692.63
686.00	28774.55
687.00	28953.99
688.00	29105.34
689.00	29310.53
690.00	29343.30
691.00	29629.62
692.00	29707.64
693.00	29908.93
694.00	30061.06
695.00	30475.34
696.00	30548.67
697.00	30655.56
698.00	30803.79
699.00	30989.47
700.00	31030.82
701.00	31151.75
702.00	31319.49
703.00	31625.32
704.00	31847.67
705.00	32148.82
706.00	32348.54
707.00	32531.11
708.00	32847.08
709.00	33091.27
710.00	33195.82
711.00	33337.03
712.00	33448.60
713.00	33591.37
714.00	33631.94
715.00	33716.98
716.00	33858.19
717.00	34068.06
718.00	34249.84
719.00	34167.14
720.00	34206.93
721.00	34190.55
722.00	34482.33
723.00	34419.92
724.00	34657.09
725.00	34658.65
726.00	34905.19
727.00	35005.05
728.00	35152.51
729.00	35251.59
730.00	35285.14
731.00	35484.08
732.00	35708.77
733.00	35658.06
734.00	35700.97
735.00	35715.79
736.00	35978.72
737.00	36324.33
738.00	36399.23
739.00	36559.17
740.00	36279.86
741.00	36577.11
742.00	36584.13
743.00	36889.18
744.00	36870.46
745.00	37308.92
746.00	37546.09
747.00	37805.11
748.00	37733.34
749.00	37930.72
750.00	38096.12
751.00	38302.87
752.00	38534.58
753.00	38615.72
754.00	38819.35
755.00	38781.12
756.00	38891.90
757.00	38903.60
758.00	39023.75
759.00	39068.22
760.00	39090.85
761.00	39136.88
762.00	39434.91
763.00	39781.31
764.00	39847.62
765.00	39952.94
766.00	40047.35
767.00	40305.59
768.00	40227.57
769.00	40366.44
770.00	40572.41
771.00	40765.11
772.00	41036.61
773.00	41076.40
774.00	41406.42
775.00	41342.44
776.00	41424.36
777.00	41440.75
778.00	41428.26
779.00	41737.99
780.00	41846.44
781.00	42224.82
782.00	42185.04
783.00	42352.77
784.00	42384.76
785.00	42596.97
786.00	42846.63
787.00	43090.82
788.00	43354.52
789.00	43345.94
790.00	43268.70
791.00	43097.06
792.00	43121.25
793.00	43229.69
794.00	43590.14
795.00	43846.04
796.00	44004.41
797.00	43995.83
798.00	44271.23
799.00	44547.42
800.00	44646.50
801.00	44622.31
802.00	44731.54
803.00	45020.98
804.00	45053.75
805.00	45269.86
806.00	45402.49
807.00	45647.47
808.00	45691.16
809.00	45682.58
810.00	45822.23
811.00	45961.10
812.00	46163.95
813.00	46238.06
814.00	46245.86
815.00	46211.54
816.00	46310.62
817.00	46314.52
818.00	46482.26
819.00	46579.00
820.00	46802.13
821.00	46864.55
822.00	46992.50
823.00	47116.54
824.00	47364.64
825.00	47401.31
826.00	47502.73
827.00	47562.81
828.00	47578.41
829.00	47604.94
830.00	47827.29
831.00	48056.66
832.00	48164.32
833.00	47993.47
834.00	48015.31
835.00	48056.66
836.00	48392.14
837.00	48567.68
838.00	48680.02
839.00	48634.77
840.00	48676.12
841.00	48905.49
842.00	49137.21
843.00	49557.72
844.00	49776.95
845.00	50014.13
846.00	49944.69
847.00	50005.55
848.00	49995.40
849.00	50177.18
850.00	50270.03
851.00	50306.69
852.00	50294.21
853.00	50347.26
854.00	50381.59
855.00	50376.13
856.00	50390.17
857.00	50610.96
858.00	50759.98
859.00	50861.40
860.00	50823.17
861.00	50853.60
862.00	50923.82
863.00	50922.26
864.00	51047.86
865.00	51076.73
866.00	51249.93
867.00	51228.09
868.00	51276.46
869.00	51485.54
870.00	51616.61
871.00	51823.36
872.00	51704.77
873.00	51812.44
874.00	51785.13
875.00	52042.59
876.00	52156.50
877.00	52270.40
878.00	52196.29
879.00	52412.40
880.00	52512.26
881.00	52599.64
882.00	52396.01
883.00	52459.99
884.00	52349.98
885.00	52401.47
886.00	52404.59
887.00	52611.34
888.00	52732.27
889.00	52768.94
890.00	52831.35
891.00	52782.98
892.00	52881.28
893.00	52804.83
894.00	52854.76
895.00	52844.62
896.00	53031.08
897.00	53137.96
898.00	53183.21
899.00	53177.75
900.00	53395.42
901.00	53582.66
902.00	53777.71
903.00	53753.52
904.00	53838.56
905.00	53962.61
906.00	54029.71
907.00	54075.74
908.00	53900.20
909.00	54074.18
910.00	54048.43
911.00	54134.25
912.00	53986.80
913.00	54129.57
914.00	54184.18
915.00	54177.16
916.00	53935.30
917.00	53918.14
918.00	53975.09
919.00	54014.88
920.00	53968.07
921.00	53986.02
922.00	54174.04
923.00	54383.91
924.00	54381.57
925.00	54463.49
926.00	54588.31
927.00	54770.10
928.00	54782.58
929.00	54876.20
930.00	54951.10
931.00	54994.01
932.00	54962.80
933.00	54905.07
934.00	54960.46
935.00	54947.20
936.00	55086.85
937.00	55189.83
938.00	55160.97
939.00	55162.53
940.00	55171.89
941.00	55256.15
942.00	55291.26
943.00	55323.24
944.00	55462.89
945.00	55559.64
946.00	55657.94
947.00	55575.24
948.00	55597.87
949.00	55625.95
950.00	55789.01
951.00	55814.76
952.00	55792.91
953.00	55777.31
954.00	55934.90
955.00	56070.65
956.00	56168.18
957.00	56104.20
958.00	56239.17
959.00	56300.81
960.00	56424.07
961.00	56363.22
962.00	56446.70
963.00	56537.20
964.00	56624.58
965.00	56694.80
966.00	56790.76
967.00	56976.44
968.00	56973.32
969.00	56886.72
970.00	56796.22
971.00	56896.08
972.00	56983.46
973.00	56996.73
974.00	57018.57
975.00	57225.32
976.00	57285.39
977.00	57315.04
978.00	57143.40
979.00	57135.60
980.00	57156.66
981.00	57364.97
982.00	57396.96
983.00	57378.23
984.00	57350.15
985.00	57451.57
986.00	57468.73
987.00	57318.94
988.00	57393.06
989.00	57468.73
990.00	57757.40
991.00	57716.05
992.00	57758.96
993.00	57627.89
994.00	57797.19
995.00	57965.71
996.00	58145.15
997.00	58277.78
998.00	58357.36
999.00	58412.75
1000.00	58338.63
1001.00	58287.14
1002.00	58187.28
1003.00	58099.90
1004.00	58114.72
1005.00	58124.08
1006.00	58231.75
1007.00	58266.86
1008.00	58348.78
1009.00	58283.24
1010.00	58305.09
1011.00	58346.43
1012.00	58480.63
1013.00	58498.57
1014.00	58594.53
1015.00	58649.14
1016.00	58626.52
1017.00	58711.56
1018.00	58684.25
1019.00	58758.37
1020.00	58750.57
1021.00	58872.28
1022.00	58909.72
1023.00	58812.20
1024.00	58741.20
1025.00	58874.62
1026.00	59136.76
1027.00	59244.42
1028.00	59344.28
1029.00	59126.61
1030.00	59158.60
1031.00	59178.10
1032.00	59373.15
1033.00	59455.07
1034.00	59483.94
1035.00	59476.91
1036.00	59460.53
1037.00	59439.46
1038.00	59473.01
1039.00	59458.19
1040.00	59440.24
1041.00	59413.72
1042.00	59512.02
1043.00	59622.03
1044.00	59754.66
1045.00	59843.60
1046.00	59868.56
1047.00	59853.74
1048.00	59893.53
1049.00	59858.42
1050.00	59969.99
1051.00	59928.64
1052.00	60034.74
1053.00	60001.19
1054.00	59998.07
1055.00	59898.99
1056.00	59834.24
1057.00	59927.08
1058.00	60046.44
1059.00	60149.43
1060.00	60158.79
1061.00	60211.84
1062.00	60296.88
1063.00	60308.58
1064.00	60253.97
1065.00	60271.92
1066.00	60302.34
1067.00	60324.19
1068.00	60320.29
1069.00	60357.73
1070.00	60355.39
1071.00	60450.58
1072.00	60495.83
1073.00	60614.41
1074.00	60618.31
1075.00	60697.89
1076.00	60744.70
1077.00	60762.65
1078.00	60808.68
1079.00	60893.72
1080.00	60863.29
1081.00	60800.88
1082.00	60771.23
1083.00	60942.87
1084.00	61017.77
1085.00	61026.35
1086.00	60981.10
1087.00	60984.22
1088.00	60999.04
1089.00	61113.73
1090.00	61204.23
1091.00	61260.40
1092.00	61182.38
1093.00	61099.68
1094.00	61190.19
1095.00	61202.67
1096.00	61238.56
1097.00	61160.54
1098.00	61264.30
1099.00	61325.16
1100.00	61407.08
1101.00	61394.59
1102.00	61434.38
1103.00	61432.04
1104.00	61357.14
1105.00	61394.59
1106.00	61404.73
1107.00	61553.75
1108.00	61615.38
1109.00	61724.61
1110.00	61733.97
1111.00	61694.18
1112.00	61664.53
1113.00	61681.70
1114.00	61618.50
1115.00	61521.76
1116.00	61538.93
1117.00	61576.37
1118.00	61588.08
1119.00	61498.36
1120.00	61592.76
1121.00	61628.65
1122.00	61715.25
1123.00	61701.98
1124.00	61767.52
1125.00	61687.16
1126.00	61639.57
1127.00	61646.59
1128.00	61682.48
1129.00	61701.20
1130.00	61755.03
1131.00	61806.53
1132.00	61805.75
1133.00	61780.00
1134.00	61722.27
1135.00	61723.05
1136.00	61725.39
1137.00	61861.92
1138.00	61957.88
1139.00	62084.27
1140.00	62139.66
1141.00	62150.59
1142.00	62061.64
1143.00	62071.79
1144.00	62157.61
1145.00	62228.60
1146.00	62317.54
1147.00	62284.78
1148.00	62365.13
1149.00	62223.14
1150.00	62181.79
1151.00	62129.52
1152.00	62191.15
1153.00	62154.49
1154.00	62023.42
1155.00	61950.86
1156.00	61992.99
1157.00	62082.71
1158.00	62077.25
1159.00	62143.56
1160.00	62134.98
1161.00	62197.40
1162.00	62139.66
1163.00	62113.92
1164.00	62119.38
1165.00	62200.52
1166.00	62231.72
1167.00	62303.50
1168.00	62353.43
1169.00	62501.67
1170.00	62504.79
1171.00	62482.94
1172.00	62386.98
1173.00	62386.98
1174.00	62340.95
1175.00	62394.78
1176.00	62283.22
1177.00	62237.97
1178.00	62141.22
1179.00	62202.86
1180.00	62354.21
1181.00	62411.95
1182.00	62504.79
1183.00	62365.13
1184.00	62381.52
1185.00	62314.42
1186.00	62388.54
1187.00	62417.41
1188.00	62495.42
1189.00	62469.68
1190.00	62399.46
1191.00	62284.00
1192.00	62253.57
1193.00	62287.12
1194.00	62244.99
1195.00	62253.57
1196.00	62216.90
1197.00	62188.03
1198.00	62194.28
1199.00	62241.87
1200.00	62414.29
1201.00	62465.78
1202.00	62531.31
1203.00	62529.75
1204.00	62596.07
1205.00	62606.21
1206.00	62548.48
1207.00	62571.88
1208.00	62525.07
1209.00	62585.92
1210.00	62610.89
1211.00	62688.91
1212.00	62771.61
1213.00	62707.63
1214.00	62606.21
1215.00	62448.61
1216.00	62397.12
1217.00	62454.07
1218.00	62461.88
1219.00	62533.65
1220.00	62536.77
1221.00	62545.36
1222.00	62553.16
1223.00	62647.56
1224.00	62704.51
1225.00	62748.20
1226.00	62635.86
1227.00	62630.40
1228.00	62539.11
1229.00	62599.19
1230.00	62590.61
1231.00	62695.15
1232.00	62652.24
1233.00	62699.05
1234.00	62637.42
1235.00	62706.85
1236.00	62825.44
1237.00	62849.63
1238.00	62868.35
1239.00	62864.45
1240.00	62966.65
1241.00	62975.23
1242.00	62947.93
1243.00	62892.54
1244.00	62841.04
1245.00	62853.53
1246.00	62929.98
1247.00	63032.97
1248.00	63061.05
1249.00	63068.86
1250.00	63064.17
1251.00	63086.02
1252.00	63164.82
1253.00	63299.79
1254.00	63370.78
1255.00	63250.64
1256.00	63206.17
1257.00	63185.88
1258.00	63188.22
1259.00	63112.55
1260.00	63046.23
1261.00	63145.31
1262.00	63222.55
1263.00	63346.60
1264.00	63322.41
1265.00	63314.61
1266.00	63244.40
1267.00	63220.99
1268.00	63264.68
1269.00	63297.45
1270.00	63337.24
1271.00	63404.33
1272.00	63464.41
1273.00	63547.10
1274.00	63575.19
1275.00	63519.80
1276.00	63460.51
1277.00	63339.58
1278.00	63394.19
1279.00	63587.67
1280.00	63667.25
1281.00	63690.66
1282.00	63714.06
1283.00	63854.50
1284.00	63841.23
1285.00	63842.79
1286.00	63819.39
1287.00	63887.26
1288.00	63699.24
1289.00	63599.38
1290.00	63453.48
1291.00	63540.08
1292.00	63595.48
1293.00	63704.70
1294.00	63801.44
1295.00	63859.96
1296.00	63888.04
1297.00	63800.66
1298.00	63718.74
1299.00	63747.61
1300.00	63749.17
1301.00	63817.05
1302.00	63831.87
1303.00	63870.88
1304.00	63895.06
1305.00	63952.02
1306.00	63985.57
1307.00	63943.44
1308.00	63873.22
1309.00	63829.53
1310.00	63894.28
1311.00	63977.76
1312.00	64125.22
1313.00	64115.86
1314.00	64116.64
1315.00	64013.65
1316.00	64085.43
1317.00	64079.19
1318.00	64173.59
1319.00	64126.78
1320.00	64258.63
1321.00	64284.37
1322.00	64418.56
1323.00	64409.20
1324.00	64511.41
1325.00	64441.19
1326.00	64395.94
1327.00	64221.96
1328.00	64133.80
1329.00	64133.80
1330.00	64155.64
1331.00	64260.19
1332.00	64233.66
1333.00	64312.46
1334.00	64406.86
1335.00	64448.99
1336.00	64419.34
1337.00	64388.92
1338.00	64380.34
1339.00	64498.14
1340.00	64485.66
1341.00	64561.34
1342.00	64531.69
1343.00	64561.34
1344.00	64544.95
1345.00	64449.77
1346.00	64332.74
1347.00	64284.37
1348.00	64310.90
1349.00	64358.49
1350.00	64371.75
1351.00	64390.48
1352.00	64328.84
1353.00	64345.23
1354.00	64300.76
1355.00	64374.09
1356.00	64372.53
1357.00	64456.79
1358.00	64509.07
1359.00	64561.34
1360.00	64555.88
1361.00	64610.49
1362.00	64644.04
1363.00	64680.70
1364.00	64620.63
1365.00	64631.55
1366.00	64559.00
1367.00	64517.65
1368.00	64424.03
1369.00	64417.78
1370.00	64353.03
1371.00	64311.68
1372.00	64269.55
1373.00	64316.36
1374.00	64346.79
1375.00	64372.53
1376.00	64415.44
1377.00	64371.75
1378.00	64399.84
1379.00	64412.32
1380.00	64472.40
1381.00	64440.41
1382.00	64429.49
1383.00	64484.88
1384.00	64546.51
1385.00	64595.66
1386.00	64633.11
1387.00	64668.22
1388.00	64698.65
1389.00	64676.80
1390.00	64722.83
1391.00	64723.61
1392.00	64750.14
1393.00	64629.21
1394.00	64565.24
1395.00	64483.32
1396.00	64527.79
1397.00	64484.88
1398.00	64485.66
1399.00	64460.69
1400.00	64528.57
1401.00	64511.41
1402.00	64476.30
1403.00	64364.73
1404.00	64307.00
1405.00	64305.44
1406.00	64253.95
1407.00	64267.99
1408.00	64248.49
1409.00	64271.89
1410.00	64299.20
1411.00	64246.93
1412.00	64294.52
1413.00	64259.41
1414.00	64323.38
1415.00	64399.06
1416.00	64485.66
1417.00	64473.18
1418.00	64424.81
1419.00	64379.56
1420.00	64466.94
1421.00	64454.45
1422.00	64502.04
1423.00	64380.34
1424.00	64382.68
1425.00	64260.19
1426.00	64257.85
1427.00	64225.86
1428.00	64166.57
1429.00	64137.70
1430.00	64129.90
1431.00	64224.30
1432.00	64314.80
1433.00	64360.83
1434.00	64328.84
1435.00	64257.07
1436.00	64191.53
1437.00	64207.14
1438.00	64247.71
1439.00	64285.15
1440.00	64379.56
1441.00	64462.25
1442.00	64543.39
1443.00	64513.75
1444.00	64412.32
1445.00	64338.99
1446.00	64282.03
1447.00	64342.11
1448.00	64341.33
1449.00	64354.59
1450.00	64267.21
1451.00	64237.56
1452.00	64222.74
1453.00	64292.18
1454.00	64297.64
1455.00	64304.66
1456.00	64292.18
1457.00	64332.74
1458.00	64395.94
1459.00	64410.76
1460.00	64431.83
1461.00	64296.08
1462.00	64101.81
1463.00	63959.04
1464.00	64030.82
1465.00	64125.22
1466.00	64092.45
1467.00	63947.34
1468.00	63894.28
1469.00	63959.04
1470.00	64040.96
1471.00	64124.44
1472.00	64035.50
1473.00	63976.98
1474.00	64014.43
1475.00	64119.76
1476.00	64221.96
1477.00	64272.67
1478.00	64294.52
1479.00	64267.21
1480.00	64122.88
1481.00	64062.02
1482.00	64084.65
1483.00	64068.26
1484.00	64050.32
1485.00	63934.85
1486.00	63827.97
1487.00	63786.62
1488.00	63795.98
1489.00	63834.21
1490.00	63817.83
1491.00	63877.90
1492.00	63867.76
1493.00	63895.06
1494.00	63857.62
1495.00	63958.26
1496.00	63933.29
1497.00	63828.75
1498.00	63706.26
1499.00	63699.24
1500.00	63788.18
1501.00	63816.27
1502.00	63803.00
1503.00	63741.37
1504.00	63788.96
1505.00	63945.00
1506.00	64030.04
1507.00	63964.50
1508.00	63834.99
1509.00	63830.31
1510.00	63884.14
1511.00	63810.81
1512.00	63730.45
1513.00	63680.52
1514.00	63712.50
1515.00	63669.59
1516.00	63614.98
1517.00	63641.51
1518.00	63704.70
1519.00	63693.78
1520.00	63635.27
1521.00	63613.42
1522.00	63582.99
1523.00	63571.29
1524.00	63583.77
1525.00	63693.78
1526.00	63738.25
1527.00	63636.05
1528.00	63589.23
1529.00	63497.17
1530.00	63473.77
1531.00	63492.49
1532.00	63629.80
1533.00	63708.60
1534.00	63622.78
1535.00	63485.47
1536.00	63418.38
1537.00	63436.32
1538.00	63433.98
1539.00	63424.62
1540.00	63398.87
1541.00	63449.58
1542.00	63471.43
1543.00	63500.29
1544.00	63497.95
1545.00	63517.46
1546.00	63540.86
1547.00	63490.15
1548.00	63491.71
1549.00	63483.91
1550.00	63450.36
1551.00	63415.25
1552.00	63391.07
1553.00	63437.10
1554.00	63430.86
1555.00	63365.32
1556.00	63348.16
1557.00	63315.39
1558.00	63394.19
1559.00	63436.32
1560.00	63439.44
1561.00	63498.73
1562.00	63461.29
1563.00	63472.21
1564.00	63441.78
1565.00	63427.74
1566.00	63454.26
1567.00	63416.82
1568.00	63363.76
1569.00	63332.56
1570.00	63323.97
1571.00	63277.16
1572.00	63146.09
1573.00	63057.93
1574.00	62999.42
1575.00	63006.44
1576.00	62909.70
1577.00	62936.23
1578.00	62932.32
1579.00	62993.96
1580.00	62919.84
1581.00	62937.79
1582.00	62953.39
1583.00	63068.08
1584.00	63024.39
1585.00	62941.69
1586.00	62822.32
1587.00	62709.19
1588.00	62780.19
1589.00	62815.30
1590.00	62844.94
1591.00	62741.18
1592.00	62642.10
1593.00	62614.01
1594.00	62571.10
1595.00	62575.78
1596.00	62773.95
1597.00	62865.23
1598.00	63009.56
1599.00	62919.06
1600.00	62873.03
1601.00	62731.04
1602.00	62703.73
1603.00	62685.01
1604.00	62785.65
1605.00	62791.89
1606.00	62819.98
1607.00	62712.31
1608.00	62613.23
1609.00	62511.81
1610.00	62482.16
1611.00	62536.77
1612.00	62660.82
1613.00	62791.89
1614.00	62869.91
1615.00	62817.64
1616.00	62736.50
1617.00	62633.52
1618.00	62615.57
1619.00	62603.87
1620.00	62660.04
1621.00	62684.23
1622.00	62657.70
1623.00	62548.48
1624.00	62568.76
1625.00	62596.85
1626.00	62679.55
1627.00	62581.24
1628.00	62557.06
1629.00	62557.06
1630.00	62694.37
1631.00	62770.05
1632.00	62784.09
1633.00	62688.13
1634.00	62711.53
1635.00	62656.92
1636.00	62598.41
1637.00	62488.40
1638.00	62395.56
1639.00	62414.29
1640.00	62411.16
1641.00	62492.30
1642.00	62504.01
1643.00	62617.91
1644.00	62614.01
1645.00	62614.01
1646.00	62511.81
1647.00	62506.35
1648.00	62548.48
1649.00	62457.20
1650.00	62320.66
1651.00	62141.22
1652.00	62149.81
1653.00	62259.03
1654.00	62267.61
1655.00	62206.76
1656.00	62041.36
1657.00	62110.80
1658.00	62250.45
1659.00	62432.23
1660.00	62562.52
1661.00	62606.21
1662.00	62706.07
1663.00	62604.65
1664.00	62457.98
1665.00	62339.39
1666.00	62311.30
1667.00	62327.69
1668.00	62303.50
1669.00	62319.88
1670.00	62280.10
1671.00	62245.77
1672.00	62174.77
1673.00	62252.01
1674.00	62330.81
1675.00	62405.70
1676.00	62451.73
1677.00	62386.98
1678.00	62287.90
1679.00	62111.58
1680.00	62063.21
1681.00	62052.28
1682.00	62035.90
1683.00	61948.52
1684.00	61911.85
1685.00	61957.88
1686.00	61985.97
1687.00	61922.77
1688.00	61845.54
1689.00	61743.33
1690.00	61725.39
1691.00	61696.52
1692.00	61780.00
1693.00	61926.67
1694.00	62021.86
1695.00	62140.44
1696.00	62094.41
1697.00	62142.00
1698.00	62026.54
1699.00	61914.19
1700.00	61786.24
1701.00	61673.12
1702.00	61674.68
1703.00	61609.14
1704.00	61611.48
1705.00	61573.25
1706.00	61560.77
1707.00	61447.64
1708.00	61388.35
1709.00	61278.35
1710.00	61307.21
1711.00	61359.48
1712.00	61504.60
1713.00	61545.17
1714.00	61508.50
1715.00	61488.99
1716.00	61488.99
1717.00	61453.11
1718.00	61318.92
1719.00	61222.95
1720.00	61192.53
1721.00	61202.67
1722.00	61254.94
1723.00	61237.78
1724.00	61230.75
1725.00	61187.06
1726.00	61112.17
1727.00	61016.99
1728.00	60913.22
1729.00	60858.61
1730.00	60865.63
1731.00	60974.08
1732.00	61132.45
1733.00	61184.72
1734.00	61095.00
1735.00	60993.58
1736.00	60938.97
1737.00	60911.66
1738.00	60831.30
1739.00	60876.55
1740.00	60784.49
1741.00	60794.64
1742.00	60633.14
1743.00	60594.13
1744.00	60559.02
1745.00	60461.50
1746.00	60448.24
1747.00	60356.17
1748.00	60433.41
1749.00	60466.18
1750.00	60551.22
1751.00	60497.39
1752.00	60332.77
1753.00	60186.10
1754.00	60107.30
1755.00	60138.50
1756.00	60163.47
1757.00	60097.16
1758.00	60012.90
1759.00	59857.64
1760.00	59788.20
1761.00	59860.76
1762.00	59898.21
1763.00	59823.31
1764.00	59637.63
1765.00	59479.25
1766.00	59483.15
1767.00	59373.15
1768.00	59376.27
1769.00	59361.45
1770.00	59520.60
1771.00	59401.24
1772.00	59363.01
1773.00	59194.49
1774.00	59199.95
1775.00	59192.93
1776.00	59340.38
1777.00	59435.56
1778.00	59347.40
1779.00	59157.04
1780.00	59021.29
1781.00	58990.86
1782.00	58985.40
1783.00	58905.82
1784.00	58901.14
1785.00	58922.21
1786.00	58993.98
1787.00	58894.90
1788.00	58777.87
1789.00	58719.36
1790.00	58791.14
1791.00	58853.55
1792.00	58876.96
1793.00	58760.71
1794.00	58568.79
1795.00	58431.47
1796.00	58351.90
1797.00	58369.06
1798.00	58391.68
1799.00	58426.79
1800.00	58283.24
1801.00	58149.05
1802.00	58005.50
1803.00	58037.48
1804.00	58097.56
1805.00	58084.29
1806.00	57946.20
1807.00	57778.46
1808.00	57667.68
1809.00	57664.56
1810.00	57552.99
1811.00	57435.19
1812.00	57279.93
1813.00	57149.64
1814.00	57085.67
1815.00	57052.90
1816.00	56998.29
1817.00	56912.47
1818.00	56756.43
1819.00	56626.92
1820.00	56481.03
1821.00	56445.14
1822.00	56503.65
1823.00	56538.76
1824.00	56582.45
1825.00	56495.85
1826.00	56413.15
1827.00	56331.23
1828.00	56234.49
1829.00	56126.83
1830.00	55652.48
1831.00	55572.90
1832.00	55537.79
1833.00	55670.42
1834.00	55533.11
1835.00	55325.58
1836.00	55089.19
1837.00	55045.50
1838.00	55056.42
1839.00	55121.96
1840.00	54980.74
1841.00	54890.24
1842.00	54898.83
1843.00	54774.00
1844.00	54683.50
1845.00	54536.04
1846.00	54276.24
1847.00	54060.91
1848.00	53851.83
1849.00	53801.89
1850.00	53713.73
1851.00	53571.74
1852.00	53563.16
1853.00	53459.40
1854.00	53486.70
1855.00	53339.25
1856.00	53280.74
1857.00	53143.42
1858.00	53008.45
1859.00	52759.58
1860.00	52599.64
1861.00	52391.33
1862.00	52430.34
1863.00	52476.37
1864.00	52403.03
1865.00	52129.97
1866.00	51830.38
1867.00	51830.38
1868.00	51760.17
1869.00	51640.02
1870.00	51425.47
1871.00	51263.97
1872.00	51054.11
1873.00	50911.33
1874.00	50912.11
1875.00	50912.11
1876.00	50869.98
1877.00	50656.21
1878.00	50355.07
1879.00	50083.56
1880.00	49925.97
1881.00	49815.18
1882.00	49613.90
1883.00	49429.77
1884.00	49375.94
1885.00	49283.88
1886.00	49134.87
1887.00	49052.17
1888.00	48953.08
1889.00	48805.63
1890.00	48451.43
1891.00	48293.05
1892.00	48304.76
1893.00	48424.12
1894.00	48314.90
1895.00	48031.69
1896.00	47711.82
1897.00	47661.89
1898.00	47531.60
1899.00	47404.43
1900.00	47111.86
1901.00	47032.28
1902.00	46870.79
1903.00	46799.01
1904.00	46703.83
1905.00	46806.81
1906.00	46564.18
1907.00	46225.58
1908.00	45807.40
1909.00	45661.51
1910.00	45509.38
1911.00	45339.30
1912.00	45060.77
1913.00	44946.09
1914.00	44786.15
1915.00	44886.79
1916.00	44717.50
1917.00	44671.46
1918.00	44366.41
1919.00	44045.76
1920.00	43760.22
1921.00	43660.35
1922.00	43487.93
1923.00	43161.04
1924.00	42797.48
1925.00	42561.08
1926.00	42439.37
1927.00	41960.34
1928.00	41918.99
1929.00	41632.67
1930.00	41698.98
1931.00	41602.24
1932.00	41620.19
1933.00	41650.61
1934.00	41347.90
1935.00	41068.60
1936.00	40780.71
1937.00	40460.06
1938.00	40212.74
1939.00	39784.43
1940.00	39533.99
1941.00	39232.06
1942.00	39061.20
1943.00	39081.49
1944.00	38969.92
1945.00	38873.18
1946.00	38524.44
1947.00	38315.35
1948.00	38069.59
1949.00	38071.15
1950.00	37863.63
1951.00	37787.95
1952.00	37419.70
1953.00	37278.49
1954.00	37038.20
1955.00	36772.94
1956.00	36610.66
1957.00	36395.33
1958.00	36247.10
1959.00	35865.59
1960.00	35379.54
1961.00	35111.94
1962.00	34799.87
1963.00	34723.41
1964.00	34484.67
1965.00	34351.26
1966.00	34210.83
1967.00	33981.46
1968.00	33862.09
1969.00	33514.13
1970.00	33236.39
1971.00	32938.36
1972.00	32811.19
1973.00	32677.78
1974.00	32588.06
1975.00	32374.29
1976.00	31924.91
1977.00	31571.49
1978.00	31309.35
1979.00	31275.02
1980.00	31170.47
1981.00	30998.84
1982.00	30838.90
1983.00	30409.80
1984.00	30148.44
1985.00	29887.86
1986.00	29962.76
1987.00	29968.22
1988.00	29993.18
1989.00	29621.04
1990.00	29357.34
1991.00	28968.03
1992.00	28781.57
1993.00	28515.53
1994.00	28409.42
1995.00	28303.32
1996.00	28183.95
1997.00	28026.35
1998.00	27917.13
1999.00	27622.22
2000.00	27323.41
2001.00	26985.60
2002.00	26783.53
2003.00	26589.27
2004.00	26381.74
2005.00	26155.49
2006.00	25951.08
2007.00	25736.53
2008.00	25525.10
2009.00	25399.49
2010.00	25241.90
2011.00	25110.83
2012.00	24869.75
2013.00	24739.46
2014.00	24636.48
2015.00	24483.56
2016.00	24275.26
2017.00	24152.77
2018.00	23961.62
2019.00	23848.50
2020.00	23545.01
2021.00	23388.19
2022.00	23156.48
2023.00	22988.74
2024.00	22795.26
2025.00	22637.66
2026.00	22451.20
2027.00	22187.50
2028.00	21898.05
2029.00	21909.75
2030.00	21867.63
2031.00	21874.65
2032.00	21651.52
2033.00	21581.30
2034.00	21361.29
2035.00	21132.70
2036.00	20853.39
2037.00	20757.43
2038.00	20583.45
2039.00	20379.04
2040.00	20188.68
2041.00	19937.46
2042.00	19810.29
2043.00	19530.21
2044.00	19530.21
2045.00	19501.34
2046.00	19631.63
2047.00	19716.67
>>>>>End Processed Spectral Data<<<<<
