SpectraSuite Data File
++++++++++++++++++++++++++++++++++++
Date: Thu Nov 16 14:13:04 EST 2017
User: cheriyan
Dark Spectrum Present: No
Reference Spectrum Present: No
Number of Sampled Component Spectra: 1
Spectrometers: USB2+H05261
Integration Time (usec): 100000 (USB2+H05261)
Spectra Averaged: 1 (USB2+H05261)
Boxcar Smoothing: 1 (USB2+H05261)
Correct for Electrical Dark: No (USB2+H05261)
Strobe/Lamp Enabled: No (USB2+H05261)
Correct for Detector Non-linearity: No (USB2+H05261)
Correct for Stray Light: No (USB2+H05261)
Number of Pixels in Processed Spectrum: 2048
>>>>>Begin Processed Spectral Data<<<<<
0.00	311.29
1.00	311.29
2.00	308.95
3.00	290.23
4.00	244.20
5.00	217.67
6.00	195.82
7.00	212.21
8.00	216.89
9.00	227.81
10.00	251.22
11.00	243.42
12.00	260.58
13.00	219.23
14.00	218.45
15.00	217.67
16.00	257.46
17.00	254.34
18.00	231.71
19.00	209.87
20.00	242.64
21.00	266.82
22.00	311.29
23.00	343.28
24.00	446.26
25.00	533.64
26.00	623.36
27.00	681.10
28.00	689.68
29.00	698.26
30.00	667.05
31.00	677.20
32.00	678.76
33.00	692.02
34.00	698.26
35.00	694.36
36.00	691.24
37.00	681.88
38.00	709.18
39.00	707.62
40.00	734.93
41.00	757.55
42.00	771.60
43.00	771.60
44.00	751.31
45.00	770.82
46.00	777.84
47.00	777.84
48.00	782.52
49.00	801.24
50.00	830.11
51.00	809.05
52.00	782.52
53.00	738.05
54.00	748.19
55.00	745.85
56.00	761.45
57.00	779.40
58.00	792.66
59.00	796.56
60.00	798.90
61.00	793.44
62.00	785.64
63.00	781.74
64.00	810.61
65.00	823.09
66.00	823.87
67.00	807.48
68.00	811.39
69.00	792.66
70.00	791.88
71.00	804.36
72.00	830.11
73.00	851.17
74.00	830.11
75.00	822.31
76.00	803.58
77.00	802.80
78.00	795.78
79.00	833.23
80.00	877.70
81.00	895.65
82.00	882.38
83.00	854.30
84.00	865.22
85.00	858.98
86.00	869.12
87.00	887.06
88.00	904.23
89.00	892.52
90.00	889.40
91.00	901.11
92.00	936.99
93.00	897.99
94.00	890.18
95.00	881.60
96.00	921.39
97.00	926.07
98.00	931.53
99.00	928.41
100.00	936.21
101.00	922.17
102.00	908.13
103.00	909.69
104.00	914.37
105.00	929.19
106.00	905.01
107.00	940.12
108.00	954.94
109.00	1001.75
110.00	969.76
111.00	957.28
112.00	943.24
113.00	961.96
114.00	980.68
115.00	986.93
116.00	985.37
117.00	993.95
118.00	962.74
119.00	987.71
120.00	979.90
121.00	995.51
122.00	979.90
123.00	963.52
124.00	1012.67
125.00	1022.03
126.00	1061.82
127.00	1029.84
128.00	1036.86
129.00	1045.44
130.00	1033.74
131.00	1058.70
132.00	1050.12
133.00	1088.35
134.00	1081.33
135.00	1107.85
136.00	1128.92
137.00	1134.38
138.00	1131.26
139.00	1125.80
140.00	1113.31
141.00	1089.91
142.00	1072.75
143.00	1073.53
144.00	1093.03
145.00	1105.51
146.00	1123.46
147.00	1126.58
148.00	1121.12
149.00	1132.82
150.00	1121.90
151.00	1151.54
152.00	1192.89
153.00	1196.01
154.00	1216.30
155.00	1193.67
156.00	1222.54
157.00	1197.57
158.00	1215.52
159.00	1218.64
160.00	1188.21
161.00	1158.57
162.00	1159.35
163.00	1192.89
164.00	1220.20
165.00	1220.98
166.00	1241.26
167.00	1237.36
168.00	1263.89
169.00	1300.56
170.00	1292.76
171.00	1324.74
172.00	1310.70
173.00	1366.09
174.00	1335.67
175.00	1320.84
176.00	1314.60
177.00	1366.87
178.00	1370.77
179.00	1369.21
180.00	1342.69
181.00	1385.60
182.00	1408.22
183.00	1433.19
184.00	1409.78
185.00	1400.42
186.00	1398.08
187.00	1416.02
188.00	1422.27
189.00	1416.80
190.00	1412.12
191.00	1422.27
192.00	1455.81
193.00	1494.82
194.00	1512.77
195.00	1520.57
196.00	1529.15
197.00	1507.30
198.00	1482.34
199.00	1483.12
200.00	1493.26
201.00	1496.38
202.00	1503.40
203.00	1483.12
204.00	1487.80
205.00	1479.22
206.00	1501.06
207.00	1508.87
208.00	1524.47
209.00	1582.20
210.00	1600.15
211.00	1608.73
212.00	1590.78
213.00	1590.00
214.00	1590.00
215.00	1596.25
216.00	1634.47
217.00	1638.38
218.00	1625.89
219.00	1621.21
220.00	1650.08
221.00	1686.75
222.00	1685.97
223.00	1730.44
224.00	1724.19
225.00	1749.94
226.00	1710.15
227.00	1727.32
228.00	1708.59
229.00	1726.54
230.00	1723.41
231.00	1716.39
232.00	1741.36
233.00	1734.34
234.00	1795.19
235.00	1788.95
236.00	1803.77
237.00	1817.04
238.00	1847.46
239.00	1884.91
240.00	1856.82
241.00	1836.54
242.00	1861.51
243.00	1911.44
244.00	1948.89
245.00	1980.09
246.00	1993.36
247.00	1992.58
248.00	1937.18
249.00	1916.12
250.00	1962.93
251.00	2008.96
252.00	2042.51
253.00	2012.08
254.00	2054.21
255.00	2101.02
256.00	2134.57
257.00	2134.57
258.00	2157.19
259.00	2131.45
260.00	2106.48
261.00	2093.22
262.00	2137.69
263.00	2190.74
264.00	2176.70
265.00	2184.50
266.00	2152.51
267.00	2208.69
268.00	2235.99
269.00	2273.44
270.00	2211.81
271.00	2217.27
272.00	2254.72
273.00	2342.88
274.00	2367.84
275.00	2395.15
276.00	2410.75
277.00	2380.32
278.00	2361.60
279.00	2334.29
280.00	2387.35
281.00	2403.73
282.00	2389.69
283.00	2413.87
284.00	2444.30
285.00	2517.64
286.00	2509.83
287.00	2515.30
288.00	2514.52
289.00	2537.92
290.00	2548.06
291.00	2547.28
292.00	2538.70
293.00	2512.17
294.00	2482.53
295.00	2506.71
296.00	2564.45
297.00	2606.58
298.00	2616.72
299.00	2570.69
300.00	2571.47
301.00	2535.58
302.00	2585.51
303.00	2594.09
304.00	2635.44
305.00	2636.22
306.00	2665.87
307.00	2654.95
308.00	2658.07
309.00	2647.15
310.00	2661.97
311.00	2633.88
312.00	2609.70
313.00	2605.02
314.00	2644.81
315.00	2658.07
316.00	2688.50
317.00	2693.96
318.00	2711.12
319.00	2698.64
320.00	2725.16
321.00	2750.13
322.00	2770.41
323.00	2775.88
324.00	2790.70
325.00	2835.95
326.00	2865.60
327.00	2913.97
328.00	2896.02
329.00	2895.24
330.00	2889.00
331.00	2941.27
332.00	2937.37
333.00	2896.80
334.00	2879.64
335.00	2902.26
336.00	2983.40
337.00	3003.69
338.00	3047.38
339.00	3066.88
340.00	3055.18
341.00	3041.92
342.00	3009.15
343.00	3042.70
344.00	3097.31
345.00	3165.18
346.00	3165.18
347.00	3127.74
348.00	3123.05
349.00	3169.87
350.00	3190.93
351.00	3161.28
352.00	3172.99
353.00	3210.43
354.00	3221.36
355.00	3187.81
356.00	3197.17
357.00	3252.56
358.00	3322.00
359.00	3335.26
360.00	3347.75
361.00	3356.33
362.00	3364.91
363.00	3417.96
364.00	3412.50
365.00	3400.02
366.00	3357.89
367.00	3382.07
368.00	3456.97
369.00	3470.23
370.00	3453.85
371.00	3420.30
372.00	3438.25
373.00	3485.84
374.00	3501.44
375.00	3527.97
376.00	3545.13
377.00	3542.79
378.00	3549.03
379.00	3562.30
380.00	3628.61
381.00	3652.80
382.00	3710.53
383.00	3735.50
384.00	3732.37
385.00	3730.81
386.00	3747.20
387.00	3800.25
388.00	3830.68
389.00	3847.06
390.00	3918.84
391.00	3953.16
392.00	3992.95
393.00	3988.27
394.00	3999.20
395.00	4041.33
396.00	4070.97
397.00	4107.64
398.00	4121.68
399.00	4156.79
400.00	4177.08
401.00	4236.37
402.00	4272.26
403.00	4280.06
404.00	4231.69
405.00	4232.47
406.00	4268.36
407.00	4320.63
408.00	4265.24
409.00	4280.84
410.00	4273.82
411.00	4381.48
412.00	4371.34
413.00	4344.03
414.00	4288.64
415.00	4317.51
416.00	4376.02
417.00	4419.71
418.00	4396.31
419.00	4423.61
420.00	4480.57
421.00	4589.79
422.00	4560.14
423.00	4518.01
424.00	4450.14
425.00	4504.75
426.00	4510.99
427.00	4488.37
428.00	4464.18
429.00	4421.27
430.00	4463.40
431.00	4425.95
432.00	4483.69
433.00	4484.47
434.00	4559.36
435.00	4614.76
436.00	4616.32
437.00	4634.26
438.00	4618.66
439.00	4699.80
440.00	4754.41
441.00	4802.00
442.00	4775.47
443.00	4822.28
444.00	4847.25
445.00	4858.17
446.00	4820.72
447.00	4862.07
448.00	4934.63
449.00	4936.97
450.00	4901.86
451.00	4876.12
452.00	4955.69
453.00	4950.23
454.00	4987.68
455.00	4948.67
456.00	5055.56
457.00	5090.67
458.00	5129.67
459.00	5050.10
460.00	5052.44
461.00	5084.42
462.00	5144.50
463.00	5195.99
464.00	5180.39
465.00	5242.80
466.00	5256.06
467.00	5309.12
468.00	5305.21
469.00	5345.00
470.00	5348.12
471.00	5369.19
472.00	5362.95
473.00	5360.61
474.00	5402.74
475.00	5402.74
476.00	5487.00
477.00	5505.72
478.00	5579.06
479.00	5568.91
480.00	5556.43
481.00	5575.16
482.00	5597.00
483.00	5621.97
484.00	5667.22
485.00	5695.30
486.00	5692.96
487.00	5678.92
488.00	5710.13
489.00	5781.90
490.00	5866.16
491.00	5932.48
492.00	5951.20
493.00	5891.91
494.00	5859.14
495.00	5859.14
496.00	5958.22
497.00	5969.15
498.00	6021.42
499.00	5955.88
500.00	5965.25
501.00	6008.16
502.00	6058.09
503.00	6129.08
504.00	6125.96
505.00	6189.94
506.00	6248.45
507.00	6324.13
508.00	6258.59
509.00	6209.44
510.00	6264.05
511.00	6307.74
512.00	6409.17
513.00	6363.92
514.00	6463.00
515.00	6473.14
516.00	6545.70
517.00	6564.42
518.00	6583.93
519.00	6577.69
520.00	6633.86
521.00	6673.65
522.00	6660.38
523.00	6681.45
524.00	6664.29
525.00	6712.66
526.00	6662.72
527.00	6711.88
528.00	6646.34
529.00	6629.96
530.00	6612.01
531.00	6682.23
532.00	6718.12
533.00	6733.72
534.00	6757.13
535.00	6810.96
536.00	6785.99
537.00	6799.26
538.00	6808.62
539.00	6828.90
540.00	6895.22
541.00	6885.08
542.00	7014.59
543.00	7076.22
544.00	7152.68
545.00	7170.62
546.00	7122.25
547.00	7162.82
548.00	7168.28
549.00	7240.84
550.00	7277.51
551.00	7328.22
552.00	7360.98
553.00	7295.45
554.00	7297.79
555.00	7339.14
556.00	7385.17
557.00	7374.25
558.00	7454.61
559.00	7548.23
560.00	7640.29
561.00	7586.46
562.00	7595.04
563.00	7680.86
564.00	7694.90
565.00	7826.75
566.00	7903.21
567.00	8003.07
568.00	8037.40
569.00	7982.01
570.00	8044.42
571.00	8117.76
572.00	8230.88
573.00	8297.98
574.00	8297.98
575.00	8295.64
576.00	8301.10
577.00	8283.16
578.00	8385.36
579.00	8420.47
580.00	8526.57
581.00	8584.30
582.00	8692.75
583.00	8744.24
584.00	8808.22
585.00	8869.07
586.00	8949.43
587.00	8941.63
588.00	8937.73
589.00	8942.41
590.00	9042.27
591.00	9137.45
592.00	9256.04
593.00	9330.94
594.00	9462.79
595.00	9564.99
596.00	9682.02
597.00	9703.08
598.00	9788.12
599.00	9846.63
600.00	9955.08
601.00	9978.48
602.00	9976.92
603.00	10065.86
604.00	10175.87
605.00	10383.40
606.00	10398.22
607.00	10455.95
608.00	10472.34
609.00	10565.96
610.00	10622.91
611.00	10508.23
612.00	10530.07
613.00	10608.87
614.00	10788.31
615.00	10879.59
616.00	11005.20
617.00	11103.50
618.00	11245.49
619.00	11267.34
620.00	11362.52
621.00	11448.34
622.00	11553.66
623.00	11776.80
624.00	11867.30
625.00	11906.31
626.00	11899.28
627.00	11919.57
628.00	12038.16
629.00	12154.40
630.00	12435.27
631.00	12531.23
632.00	12497.68
633.00	12509.38
634.00	12714.57
635.00	12901.03
636.00	12961.11
637.00	13042.25
638.00	13140.55
639.00	13195.94
640.00	13105.44
641.00	13154.59
642.00	13229.49
643.00	13450.28
644.00	13626.60
645.00	13660.93
646.00	13778.73
647.00	13816.18
648.00	13969.10
649.00	14180.53
650.00	14220.31
651.00	14357.63
652.00	14239.82
653.00	14453.59
654.00	14560.47
655.00	14710.27
656.00	14774.24
657.00	14886.59
658.00	14998.15
659.00	15123.76
660.00	15283.70
661.00	15414.77
662.00	15550.52
663.00	15568.46
664.00	15613.71
665.00	15625.42
666.00	15775.99
667.00	16019.41
668.00	16162.18
669.00	16284.67
670.00	16287.79
671.00	16390.77
672.00	16362.69
673.00	16454.75
674.00	16519.50
675.00	16673.98
676.00	16695.82
677.00	16764.48
678.00	16775.40
679.00	16947.82
680.00	17079.67
681.00	17299.68
682.00	17405.78
683.00	17647.64
684.00	17802.89
685.00	17919.14
686.00	17866.09
687.00	17932.40
688.00	17986.24
689.00	18166.46
690.00	18332.64
691.00	18640.03
692.00	18781.24
693.00	18817.13
694.00	18764.86
695.00	18817.91
696.00	18853.02
697.00	18931.03
698.00	19043.38
699.00	19117.50
700.00	19128.42
701.00	19177.57
702.00	19289.14
703.00	19469.36
704.00	19556.74
705.00	19722.91
706.00	19915.62
707.00	20048.25
708.00	20242.51
709.00	20429.76
710.00	20471.89
711.00	20591.25
712.00	20630.26
713.00	20826.87
714.00	20787.86
715.00	20786.30
716.00	20782.40
717.00	21065.60
718.00	21208.37
719.00	21436.19
720.00	21317.60
721.00	21335.54
722.00	21287.95
723.00	21505.62
724.00	21596.12
725.00	21620.31
726.00	21556.33
727.00	21781.81
728.00	21868.41
729.00	22061.11
730.00	21993.23
731.00	22113.38
732.00	22061.11
733.00	22136.79
734.00	22278.78
735.00	22419.21
736.00	22439.50
737.00	22396.59
738.00	22403.61
739.00	22512.83
740.00	22637.66
741.00	22856.89
742.00	23058.18
743.00	23154.14
744.00	23030.87
745.00	23076.12
746.00	23215.77
747.00	23402.24
748.00	23404.58
749.00	23423.30
750.00	23457.63
751.00	23560.61
752.00	23669.84
753.00	23839.92
754.00	24006.87
755.00	24080.99
756.00	24091.91
757.00	23960.06
758.00	24055.25
759.00	24204.26
760.00	24454.70
761.00	24588.89
762.00	24642.72
763.00	24709.82
764.00	24710.60
765.00	24819.82
766.00	24965.71
767.00	25135.79
768.00	25252.04
769.00	25339.42
770.00	25460.35
771.00	25533.68
772.00	25567.23
773.00	25660.07
774.00	25870.72
775.00	25937.82
776.00	26012.71
777.00	25965.12
778.00	26096.19
779.00	26135.98
780.00	26114.14
781.00	26330.25
782.00	26498.77
783.00	26859.99
784.00	26902.12
785.00	26797.57
786.00	26778.85
787.00	26697.71
788.00	26913.04
789.00	27012.90
790.00	27196.24
791.00	27205.61
792.00	27266.46
793.00	27203.27
794.00	27303.91
795.00	27251.64
796.00	27513.78
797.00	27555.91
798.00	27772.80
799.00	27789.18
800.00	28034.16
801.00	28087.21
802.00	28267.43
803.00	28260.41
804.00	28268.99
805.00	28306.44
806.00	28399.28
807.00	28396.94
808.00	28424.25
809.00	28532.69
810.00	28851.00
811.00	28920.44
812.00	28937.60
813.00	28972.71
814.00	29244.99
815.00	29461.88
816.00	29708.42
817.00	29762.25
818.00	29810.62
819.00	29635.08
820.00	29636.64
821.00	29708.42
822.00	29907.37
823.00	29919.85
824.00	29856.65
825.00	29805.94
826.00	29894.10
827.00	29987.72
828.00	30081.35
829.00	30009.57
830.00	30255.32
831.00	30540.09
832.00	30900.53
833.00	30771.02
834.00	30782.73
835.00	30788.19
836.00	31026.14
837.00	31000.40
838.00	31056.57
839.00	31042.53
840.00	31186.08
841.00	31151.75
842.00	31254.73
843.00	31310.91
844.00	31464.60
845.00	31568.37
846.00	31760.29
847.00	31935.83
848.00	32240.10
849.00	32279.89
850.00	32316.56
851.00	32138.68
852.00	31938.95
853.00	31783.69
854.00	31873.42
855.00	32080.94
856.00	32269.75
857.00	32363.37
858.00	32384.43
859.00	32405.50
860.00	32462.45
861.00	32566.99
862.00	32846.30
863.00	32999.99
864.00	33091.27
865.00	33173.97
866.00	33309.72
867.00	33518.81
868.00	33665.49
869.00	33932.31
870.00	34089.12
871.00	34158.56
872.00	33912.02
873.00	33943.23
874.00	33929.19
875.00	33939.33
876.00	33825.42
877.00	33916.70
878.00	34178.84
879.00	34469.85
880.00	34465.17
881.00	34274.80
882.00	33981.46
883.00	33951.03
884.00	34050.89
885.00	34094.58
886.00	34171.04
887.00	34243.60
888.00	34334.88
889.00	34445.66
890.00	34655.53
891.00	34809.23
892.00	34910.65
893.00	34834.19
894.00	34982.43
895.00	35065.13
896.00	35072.15
897.00	35058.88
898.00	35126.76
899.00	35413.09
900.00	35555.86
901.00	35711.11
902.00	35790.69
903.00	35901.48
904.00	36049.71
905.00	36266.60
906.00	36339.16
907.00	36286.11
908.00	36069.22
909.00	36475.69
910.00	36385.97
911.00	36374.27
912.00	35818.00
913.00	35816.44
914.00	35762.61
915.00	36058.29
916.00	36159.72
917.00	36515.48
918.00	36542.78
919.00	36519.38
920.00	36457.74
921.00	36588.03
922.00	36693.36
923.00	36761.23
924.00	36746.41
925.00	36830.67
926.00	36818.19
927.00	36845.49
928.00	37050.68
929.00	37297.22
930.00	37443.11
931.00	37443.89
932.00	37582.76
933.00	37699.79
934.00	37715.39
935.00	37491.48
936.00	37397.86
937.00	37438.43
938.00	37423.61
939.00	37617.87
940.00	37692.77
941.00	37711.49
942.00	37647.52
943.00	37559.36
944.00	37872.99
945.00	37952.57
946.00	38167.90
947.00	38219.39
948.00	38284.14
949.00	38225.63
950.00	38184.28
951.00	38110.16
952.00	38011.86
953.00	37855.82
954.00	37891.71
955.00	38115.62
956.00	38492.45
957.00	38760.83
958.00	39112.69
959.00	39194.61
960.00	39200.07
961.00	39032.33
962.00	39174.33
963.00	39288.23
964.00	39440.37
965.00	39444.27
966.00	39584.70
967.00	39798.47
968.00	39878.83
969.00	39981.81
970.00	40067.63
971.00	40236.93
972.00	40288.42
973.00	40154.23
974.00	40108.98
975.00	40197.14
976.00	40169.83
977.00	40071.53
978.00	39735.27
979.00	39642.43
980.00	39536.33
981.00	39951.38
982.00	40219.77
983.00	40431.19
984.00	40511.55
985.00	40699.58
986.00	40776.03
987.00	40583.33
988.00	40479.57
989.00	40492.05
990.00	40704.26
991.00	40526.38
992.00	40653.54
993.00	40556.80
994.00	40895.40
995.00	41026.47
996.00	41284.71
997.00	41595.22
998.00	41784.02
999.00	41946.30
1000.00	41943.96
1001.00	41957.22
1002.00	41878.43
1003.00	41617.07
1004.00	41582.74
1005.00	41635.79
1006.00	41942.40
1007.00	41885.45
1008.00	42034.46
1009.00	41993.89
1010.00	42202.20
1011.00	41958.78
1012.00	42006.37
1013.00	42004.81
1014.00	42202.20
1015.00	42210.00
1016.00	42266.17
1017.00	42472.92
1018.00	42760.03
1019.00	43044.01
1020.00	42973.80
1021.00	42824.78
1022.00	42559.52
1023.00	42486.18
1024.00	42576.69
1025.00	42858.33
1026.00	43228.91
1027.00	43299.91
1028.00	43393.53
1029.00	43181.32
1030.00	43274.16
1031.00	43340.48
1032.00	43661.91
1033.00	43881.92
1034.00	43907.67
1035.00	43736.81
1036.00	43590.92
1037.00	43587.80
1038.00	43894.41
1039.00	43765.68
1040.00	43863.98
1041.00	43852.28
1042.00	44198.68
1043.00	44431.95
1044.00	44502.95
1045.00	44656.64
1046.00	44442.87
1047.00	44336.77
1048.00	44309.46
1049.00	44396.84
1050.00	44719.84
1051.00	44814.24
1052.00	44949.99
1053.00	44871.19
1054.00	44842.32
1055.00	44700.33
1056.00	44636.36
1057.00	44787.71
1058.00	45039.71
1059.00	45354.90
1060.00	45323.69
1061.00	45292.49
1062.00	45184.82
1063.00	45174.68
1064.00	45209.79
1065.00	45151.27
1066.00	45340.86
1067.00	45585.83
1068.00	45625.62
1069.00	45439.94
1070.00	45234.75
1071.00	45406.39
1072.00	45468.81
1073.00	45617.04
1074.00	45682.58
1075.00	45812.09
1076.00	45857.34
1077.00	46030.54
1078.00	46211.54
1079.00	46251.33
1080.00	45981.38
1081.00	45922.09
1082.00	45938.47
1083.00	46032.10
1084.00	45956.42
1085.00	45818.33
1086.00	45898.69
1087.00	46181.89
1088.00	46212.32
1089.00	46448.71
1090.00	46454.95
1091.00	46810.71
1092.00	46712.41
1093.00	46708.51
1094.00	46738.16
1095.00	46822.42
1096.00	46930.86
1097.00	46904.34
1098.00	47042.43
1099.00	47080.66
1100.00	47239.81
1101.00	47178.96
1102.00	47158.67
1103.00	47019.80
1104.00	47007.32
1105.00	46952.71
1106.00	46903.56
1107.00	46862.99
1108.00	47025.26
1109.00	47157.89
1110.00	47468.40
1111.00	47237.47
1112.00	47256.98
1113.00	46966.75
1114.00	46976.89
1115.00	46925.40
1116.00	46967.53
1117.00	47116.54
1118.00	47289.74
1119.00	47426.28
1120.00	47424.71
1121.00	47558.91
1122.00	47629.12
1123.00	47599.47
1124.00	47476.21
1125.00	47289.74
1126.00	47257.76
1127.00	47235.91
1128.00	47311.59
1129.00	47384.93
1130.00	47333.43
1131.00	47423.93
1132.00	47462.16
1133.00	47526.92
1134.00	47526.14
1135.00	47551.10
1136.00	47677.49
1137.00	47884.24
1138.00	48169.01
1139.00	48171.35
1140.00	48132.34
1141.00	48161.20
1142.00	48281.35
1143.00	48219.72
1144.00	48155.74
1145.00	48005.17
1146.00	48121.41
1147.00	47988.00
1148.00	48112.05
1149.00	47978.64
1150.00	47945.09
1151.00	48074.60
1152.00	48279.79
1153.00	48518.53
1154.00	48358.59
1155.00	48199.43
1156.00	48121.41
1157.00	48127.66
1158.00	48043.40
1159.00	48136.24
1160.00	48281.35
1161.00	48671.44
1162.00	48861.02
1163.00	48910.17
1164.00	48804.07
1165.00	48820.45
1166.00	48712.79
1167.00	48701.09
1168.00	48570.02
1169.00	48576.26
1170.00	48534.13
1171.00	48435.83
1172.00	48342.20
1173.00	48406.18
1174.00	48492.78
1175.00	48681.58
1176.00	48554.41
1177.00	48445.97
1178.00	48355.47
1179.00	48431.93
1180.00	48589.52
1181.00	48746.34
1182.00	49045.93
1183.00	49146.57
1184.00	49222.25
1185.00	49132.53
1186.00	49130.19
1187.00	49077.13
1188.00	49067.77
1189.00	48927.34
1190.00	49096.64
1191.00	49100.54
1192.00	48989.75
1193.00	48804.07
1194.00	48750.24
1195.00	49106.00
1196.00	49165.29
1197.00	49247.99
1198.00	49206.64
1199.00	49238.63
1200.00	49132.53
1201.00	49044.37
1202.00	48907.05
1203.00	48947.62
1204.00	49048.27
1205.00	49333.03
1206.00	49378.28
1207.00	49553.82
1208.00	49485.95
1209.00	49425.87
1210.00	49092.74
1211.00	48894.57
1212.00	49008.48
1213.00	49149.69
1214.00	49031.10
1215.00	49045.15
1216.00	49024.86
1217.00	49283.10
1218.00	49298.70
1219.00	49234.73
1220.00	49194.16
1221.00	49109.12
1222.00	49041.24
1223.00	49092.74
1224.00	49009.26
1225.00	49117.70
1226.00	49083.37
1227.00	49173.88
1228.00	49178.56
1229.00	49217.57
1230.00	49163.73
1231.00	49354.88
1232.00	49377.50
1233.00	49560.84
1234.00	49503.89
1235.00	49617.80
1236.00	49653.68
1237.00	49698.94
1238.00	49785.54
1239.00	49901.78
1240.00	49980.58
1241.00	50021.93
1242.00	50016.47
1243.00	50092.15
1244.00	50077.32
1245.00	50074.98
1246.00	50128.81
1247.00	50313.72
1248.00	50408.12
1249.00	50365.21
1250.00	50195.13
1251.00	49976.68
1252.00	50028.95
1253.00	50039.87
1254.00	50064.84
1255.00	49824.54
1256.00	49774.61
1257.00	49901.78
1258.00	50074.20
1259.00	49917.39
1260.00	49874.48
1261.00	49984.48
1262.00	50351.94
1263.00	50651.53
1264.00	50737.35
1265.00	50838.78
1266.00	50755.30
1267.00	50955.02
1268.00	51059.57
1269.00	51177.37
1270.00	50971.41
1271.00	50768.56
1272.00	50747.50
1273.00	50763.10
1274.00	50734.23
1275.00	50599.26
1276.00	50472.87
1277.00	50337.12
1278.00	50348.82
1279.00	50456.49
1280.00	50622.67
1281.00	50794.31
1282.00	50775.58
1283.00	50794.31
1284.00	50759.20
1285.00	50895.73
1286.00	51150.85
1287.00	51149.29
1288.00	51159.43
1289.00	51143.05
1290.00	51150.85
1291.00	51302.98
1292.00	51341.99
1293.00	51517.53
1294.00	51507.39
1295.00	51531.57
1296.00	51549.52
1297.00	51462.14
1298.00	51330.29
1299.00	51260.85
1300.00	51010.42
1301.00	50961.26
1302.00	50926.94
1303.00	51269.43
1304.00	51457.46
1305.00	51471.50
1306.00	51459.02
1307.00	51261.63
1308.00	51252.27
1309.00	51129.78
1310.00	51284.26
1311.00	51341.21
1312.00	51449.66
1313.00	51562.00
1314.00	51746.90
1315.00	51898.26
1316.00	51899.82
1317.00	51813.22
1318.00	51750.02
1319.00	51699.31
1320.00	51721.94
1321.00	51780.45
1322.00	51852.23
1323.00	51894.36
1324.00	51931.81
1325.00	51936.49
1326.00	51919.32
1327.00	52051.95
1328.00	52164.30
1329.00	52386.65
1330.00	52429.56
1331.00	52544.25
1332.00	52348.42
1333.00	52115.15
1334.00	51786.69
1335.00	51683.71
1336.00	51668.11
1337.00	51664.21
1338.00	51779.67
1339.00	51815.56
1340.00	51848.33
1341.00	51963.01
1342.00	52070.68
1343.00	52216.57
1344.00	52165.86
1345.00	52021.53
1346.00	52002.80
1347.00	52050.39
1348.00	52168.98
1349.00	52282.89
1350.00	52182.24
1351.00	52202.53
1352.00	51979.40
1353.00	52145.58
1354.00	52144.01
1355.00	52259.48
1356.00	52242.32
1357.00	52353.88
1358.00	52372.61
1359.00	52346.86
1360.00	52287.57
1361.00	52296.93
1362.00	52251.68
1363.00	52232.18
1364.00	52163.52
1365.00	52236.08
1366.00	52257.92
1367.00	52344.52
1368.00	52390.55
1369.00	52563.75
1370.00	52593.40
1371.00	52477.93
1372.00	52380.41
1373.00	52460.77
1374.00	52559.07
1375.00	52456.09
1376.00	52345.30
1377.00	52349.98
1378.00	52315.65
1379.00	52380.41
1380.00	52346.08
1381.00	52430.34
1382.00	52282.89
1383.00	52258.70
1384.00	52002.02
1385.00	52084.72
1386.00	51788.25
1387.00	51894.36
1388.00	51767.97
1389.00	51835.06
1390.00	51866.27
1391.00	52011.38
1392.00	52240.76
1393.00	52393.67
1394.00	52322.68
1395.00	52307.07
1396.00	52207.99
1397.00	52216.57
1398.00	52073.02
1399.00	52023.09
1400.00	52130.75
1401.00	52194.73
1402.00	52278.21
1403.00	52099.54
1404.00	52201.75
1405.00	52126.85
1406.00	52254.80
1407.00	52283.67
1408.00	52344.52
1409.00	52314.09
1410.00	52307.07
1411.00	52411.62
1412.00	52481.05
1413.00	52640.21
1414.00	52711.99
1415.00	52750.21
1416.00	52584.04
1417.00	52474.81
1418.00	52344.52
1419.00	52360.12
1420.00	52524.74
1421.00	52664.39
1422.00	52665.17
1423.00	52493.53
1424.00	52605.10
1425.00	52612.90
1426.00	52525.52
1427.00	52419.42
1428.00	52398.35
1429.00	52338.28
1430.00	52243.88
1431.00	52148.70
1432.00	52186.14
1433.00	52050.39
1434.00	51973.94
1435.00	51918.54
1436.00	51838.18
1437.00	51804.64
1438.00	51842.09
1439.00	51941.95
1440.00	51995.00
1441.00	51941.95
1442.00	51928.69
1443.00	51879.53
1444.00	51841.31
1445.00	51858.47
1446.00	51954.43
1447.00	52073.02
1448.00	52169.76
1449.00	52285.23
1450.00	52402.25
1451.00	52463.11
1452.00	52535.66
1453.00	52448.28
1454.00	52297.71
1455.00	52108.13
1456.00	52069.12
1457.00	52080.82
1458.00	52173.66
1459.00	52055.85
1460.00	52082.38
1461.00	51902.94
1462.00	51853.79
1463.00	51762.51
1464.00	51782.79
1465.00	51836.62
1466.00	51861.59
1467.00	51848.33
1468.00	51863.15
1469.00	51819.46
1470.00	51878.75
1471.00	51952.87
1472.00	51969.26
1473.00	51826.48
1474.00	51740.66
1475.00	51723.50
1476.00	51851.45
1477.00	51933.37
1478.00	52071.46
1479.00	52133.09
1480.00	51990.32
1481.00	51819.46
1482.00	51608.03
1483.00	51553.42
1484.00	51529.23
1485.00	51537.04
1486.00	51520.65
1487.00	51402.07
1488.00	51455.90
1489.00	51448.10
1490.00	51494.13
1491.00	51449.66
1492.00	51410.65
1493.00	51402.07
1494.00	51354.47
1495.00	51467.60
1496.00	51473.84
1497.00	51527.67
1498.00	51451.22
1499.00	51588.53
1500.00	51602.57
1501.00	51757.05
1502.00	51804.64
1503.00	51645.48
1504.00	51569.02
1505.00	51488.66
1506.00	51654.06
1507.00	51569.02
1508.00	51456.68
1509.00	51341.21
1510.00	51356.81
1511.00	51431.71
1512.00	51525.33
1513.00	51527.67
1514.00	51420.79
1515.00	51294.40
1516.00	51165.67
1517.00	51214.04
1518.00	51210.92
1519.00	51386.46
1520.00	51436.39
1521.00	51420.01
1522.00	51391.92
1523.00	51299.08
1524.00	51284.26
1525.00	51178.15
1526.00	51119.64
1527.00	50961.26
1528.00	51019.00
1529.00	50978.43
1530.00	51054.11
1531.00	50891.83
1532.00	51020.56
1533.00	51126.66
1534.00	51227.31
1535.00	51280.36
1536.00	51432.49
1537.00	51569.02
1538.00	51515.19
1539.00	51416.11
1540.00	51322.49
1541.00	51237.45
1542.00	51246.81
1543.00	51427.81
1544.00	51618.17
1545.00	51569.02
1546.00	51320.15
1547.00	51145.39
1548.00	51015.88
1549.00	50907.43
1550.00	50891.05
1551.00	50917.57
1552.00	51035.38
1553.00	51102.48
1554.00	51178.93
1555.00	51159.43
1556.00	51218.72
1557.00	51209.36
1558.00	51387.24
1559.00	51187.52
1560.00	50891.83
1561.00	50621.89
1562.00	50694.44
1563.00	50794.31
1564.00	50621.89
1565.00	50451.03
1566.00	50280.95
1567.00	50241.94
1568.00	50025.83
1569.00	50078.88
1570.00	50046.90
1571.00	49915.82
1572.00	49737.94
1573.00	49748.87
1574.00	49991.50
1575.00	50128.81
1576.00	50089.02
1577.00	50066.40
1578.00	50273.93
1579.00	50479.89
1580.00	50402.66
1581.00	50232.58
1582.00	50263.78
1583.00	50483.80
1584.00	50706.15
1585.00	50719.41
1586.00	50568.83
1587.00	50362.09
1588.00	50285.63
1589.00	50323.08
1590.00	50307.47
1591.00	50284.07
1592.00	50281.73
1593.00	50148.32
1594.00	49980.58
1595.00	49876.82
1596.00	50027.39
1597.00	50190.45
1598.00	50204.49
1599.00	50080.44
1600.00	49993.06
1601.00	49879.16
1602.00	49886.18
1603.00	49796.46
1604.00	50009.45
1605.00	49986.04
1606.00	49938.45
1607.00	49598.29
1608.00	49580.35
1609.00	49444.60
1610.00	49583.47
1611.00	49651.34
1612.00	49888.52
1613.00	49907.24
1614.00	49805.82
1615.00	49728.58
1616.00	49752.77
1617.00	49972.78
1618.00	50168.60
1619.00	50289.53
1620.00	50318.40
1621.00	50241.94
1622.00	50275.49
1623.00	50106.19
1624.00	50218.53
1625.00	50035.19
1626.00	49904.12
1627.00	49659.15
1628.00	49643.54
1629.00	49769.15
1630.00	49825.32
1631.00	49945.47
1632.00	49965.76
1633.00	49983.70
1634.00	49931.43
1635.00	49975.90
1636.00	49926.75
1637.00	49880.72
1638.00	49639.64
1639.00	49582.69
1640.00	49481.27
1641.00	49635.74
1642.00	49609.21
1643.00	49521.05
1644.00	49269.84
1645.00	49161.39
1646.00	49279.20
1647.00	49290.90
1648.00	49341.61
1649.00	49438.36
1650.00	49579.57
1651.00	49436.80
1652.00	49257.35
1653.00	49139.55
1654.00	49141.89
1655.00	49148.91
1656.00	49233.17
1657.00	49241.75
1658.00	49120.82
1659.00	48834.50
1660.00	48897.69
1661.00	48783.79
1662.00	48920.32
1663.00	48908.61
1664.00	49249.55
1665.00	49592.05
1666.00	49674.75
1667.00	49459.42
1668.00	49094.30
1669.00	48906.27
1670.00	48740.88
1671.00	48633.99
1672.00	48679.24
1673.00	48881.31
1674.00	49205.86
1675.00	49345.51
1676.00	49263.60
1677.00	48967.13
1678.00	48710.45
1679.00	48593.42
1680.00	48566.90
1681.00	48491.22
1682.00	48556.75
1683.00	48409.30
1684.00	48571.58
1685.00	48557.53
1686.00	48788.47
1687.00	48830.60
1688.00	48879.75
1689.00	48798.61
1690.00	48641.01
1691.00	48477.18
1692.00	48316.46
1693.00	48094.89
1694.00	47881.90
1695.00	47752.39
1696.00	47672.03
1697.00	47774.23
1698.00	47916.23
1699.00	48154.96
1700.00	48316.46
1701.00	48409.30
1702.00	48487.32
1703.00	48567.68
1704.00	48527.11
1705.00	48451.43
1706.00	48240.78
1707.00	48064.46
1708.00	48055.10
1709.00	48014.53
1710.00	48034.03
1711.00	47805.44
1712.00	47655.65
1713.00	47609.62
1714.00	47626.78
1715.00	47686.07
1716.00	47659.55
1717.00	47771.11
1718.00	47733.67
1719.00	47654.87
1720.00	47559.69
1721.00	47464.50
1722.00	47505.07
1723.00	47365.42
1724.00	47427.84
1725.00	47289.74
1726.00	47322.51
1727.00	47219.53
1728.00	47091.58
1729.00	46909.80
1730.00	46849.72
1731.00	46806.03
1732.00	46635.95
1733.00	46371.47
1734.00	46195.15
1735.00	46317.64
1736.00	46261.47
1737.00	46334.81
1738.00	46145.22
1739.00	46193.59
1740.00	45950.18
1741.00	45761.37
1742.00	45549.17
1743.00	45597.54
1744.00	45467.25
1745.00	45336.96
1746.00	45276.10
1747.00	45284.68
1748.00	45326.81
1749.00	45159.08
1750.00	45127.87
1751.00	45020.98
1752.00	44788.49
1753.00	44527.91
1754.00	44365.63
1755.00	44343.79
1756.00	44371.10
1757.00	44399.18
1758.00	44339.11
1759.00	44307.90
1760.00	44099.59
1761.00	44063.71
1762.00	44021.58
1763.00	44024.70
1764.00	44055.12
1765.00	43774.26
1766.00	43632.27
1767.00	43379.49
1768.00	43448.14
1769.00	43497.30
1770.00	43679.86
1771.00	43810.15
1772.00	43712.63
1773.00	43558.15
1774.00	43296.79
1775.00	43049.47
1776.00	42951.95
1777.00	42822.44
1778.00	42973.80
1779.00	43091.60
1780.00	42987.06
1781.00	42783.43
1782.00	42576.69
1783.00	42581.37
1784.00	42658.60
1785.00	42458.10
1786.00	42316.11
1787.00	41945.52
1788.00	41621.75
1789.00	41510.96
1790.00	41383.79
1791.00	41304.99
1792.00	40973.42
1793.00	40929.73
1794.00	40877.46
1795.00	41060.80
1796.00	40763.55
1797.00	40471.76
1798.00	40070.75
1799.00	40094.94
1800.00	39845.28
1801.00	39832.02
1802.00	39604.20
1803.00	39389.66
1804.00	39050.28
1805.00	38785.02
1806.00	38836.51
1807.00	38822.47
1808.00	38884.10
1809.00	38938.71
1810.00	38897.36
1811.00	38756.15
1812.00	38571.25
1813.00	38465.92
1814.00	38380.10
1815.00	38317.69
1816.00	38094.56
1817.00	37888.59
1818.00	37658.44
1819.00	37439.21
1820.00	37422.83
1821.00	37340.13
1822.00	37329.98
1823.00	37198.13
1824.00	37123.24
1825.00	36845.49
1826.00	36615.34
1827.00	36409.37
1828.00	36318.87
1829.00	36152.69
1830.00	35686.15
1831.00	35671.32
1832.00	35687.71
1833.00	35863.25
1834.00	35683.81
1835.00	35504.37
1836.00	35133.00
1837.00	34806.89
1838.00	34340.34
1839.00	34322.40
1840.00	34060.26
1841.00	33865.99
1842.00	33585.91
1843.00	33457.18
1844.00	33383.06
1845.00	33220.78
1846.00	32987.51
1847.00	32677.78
1848.00	32393.79
1849.00	32219.81
1850.00	32127.75
1851.00	32066.90
1852.00	31987.32
1853.00	31848.45
1854.00	31658.09
1855.00	31454.46
1856.00	31354.60
1857.00	31225.09
1858.00	31079.19
1859.00	30891.17
1860.00	30706.27
1861.00	30654.00
1862.00	30473.77
1863.00	30409.02
1864.00	30200.71
1865.00	30142.20
1866.00	29956.52
1867.00	29696.72
1868.00	29457.98
1869.00	29265.28
1870.00	29123.29
1871.00	28765.18
1872.00	28478.86
1873.00	28220.62
1874.00	27985.79
1875.00	27847.69
1876.00	27617.54
1877.00	27481.79
1878.00	27235.25
1879.00	27077.66
1880.00	27010.56
1881.00	26781.97
1882.00	26675.87
1883.00	26426.99
1884.00	26371.60
1885.00	26126.62
1886.00	25908.17
1887.00	25709.22
1888.00	25600.00
1889.00	25549.29
1890.00	25382.33
1891.00	25178.70
1892.00	24939.97
1893.00	24781.59
1894.00	24757.41
1895.00	24663.79
1896.00	24518.67
1897.00	24325.97
1898.00	24151.99
1899.00	24145.75
1900.00	24106.74
1901.00	24121.56
1902.00	24017.02
1903.00	23772.82
1904.00	23598.84
1905.00	23414.72
1906.00	23257.12
1907.00	23027.75
1908.00	22913.84
1909.00	22800.72
1910.00	22622.84
1911.00	22259.27
1912.00	21985.43
1913.00	21799.75
1914.00	21743.58
1915.00	21682.72
1916.00	21536.83
1917.00	21307.46
1918.00	21149.86
1919.00	21105.39
1920.00	21070.28
1921.00	20932.97
1922.00	20727.78
1923.00	20460.96
1924.00	20271.38
1925.00	20077.90
1926.00	19872.71
1927.00	19624.61
1928.00	19519.29
1929.00	19504.46
1930.00	19506.80
1931.00	19404.60
1932.00	19124.52
1933.00	19068.34
1934.00	18882.66
1935.00	18885.78
1936.00	18672.79
1937.00	18537.82
1938.00	18405.19
1939.00	18359.94
1940.00	18259.30
1941.00	18087.66
1942.00	17823.18
1943.00	17673.39
1944.00	17670.26
1945.00	17630.48
1946.00	17596.15
1947.00	17389.40
1948.00	17259.11
1949.00	17124.14
1950.00	16978.25
1951.00	16842.50
1952.00	16744.97
1953.00	16771.50
1954.00	16767.60
1955.00	16595.18
1956.00	16359.56
1957.00	16139.55
1958.00	15939.83
1959.00	15809.54
1960.00	15736.98
1961.00	15757.27
1962.00	15711.24
1963.00	15480.30
1964.00	15331.29
1965.00	15162.77
1966.00	15169.79
1967.00	15126.88
1968.00	15090.21
1969.00	14973.19
1970.00	14866.30
1971.00	14737.57
1972.00	14586.22
1973.00	14516.78
1974.00	14441.11
1975.00	14446.57
1976.00	14249.96
1977.00	14117.33
1978.00	13924.63
1979.00	13853.63
1980.00	13766.25
1981.00	13690.57
1982.00	13678.87
1983.00	13666.39
1984.00	13635.18
1985.00	13525.18
1986.00	13444.82
1987.00	13341.83
1988.00	13329.35
1989.00	13189.70
1990.00	13149.13
1991.00	12858.90
1992.00	12768.40
1993.00	12618.61
1994.00	12620.17
1995.00	12588.96
1996.00	12516.40
1997.00	12471.93
1998.00	12279.23
1999.00	12110.71
2000.00	11963.26
2001.00	11928.93
2002.00	11923.47
2003.00	11886.80
2004.00	11817.36
2005.00	11650.41
2006.00	11499.83
2007.00	11415.57
2008.00	11431.18
2009.00	11453.02
2010.00	11458.48
2011.00	11418.69
2012.00	11380.46
2013.00	11304.79
2014.00	11170.60
2015.00	11089.46
2016.00	11080.88
2017.00	11123.01
2018.00	10959.17
2019.00	10831.22
2020.00	10739.94
2021.00	10800.79
2022.00	10771.93
2023.00	10715.75
2024.00	10606.53
2025.00	10451.27
2026.00	10425.53
2027.00	10340.49
2028.00	10327.22
2029.00	10211.76
2030.00	10230.48
2031.00	10214.88
2032.00	10225.80
2033.00	10146.22
2034.00	9997.99
2035.00	9852.10
2036.00	9714.78
2037.00	9695.28
2038.00	9637.55
2039.00	9591.52
2040.00	9580.59
2041.00	9556.41
2042.00	9602.44
2043.00	9502.57
2044.00	9486.97
2045.00	9426.12
2046.00	9400.37
2047.00	9294.27
>>>>>End Processed Spectral Data<<<<<
