SpectraSuite Data File
++++++++++++++++++++++++++++++++++++
Date: Thu Nov 16 14:14:15 EST 2017
User: cheriyan
Dark Spectrum Present: No
Reference Spectrum Present: No
Number of Sampled Component Spectra: 1
Spectrometers: USB2+H05261
Integration Time (usec): 100000 (USB2+H05261)
Spectra Averaged: 1 (USB2+H05261)
Boxcar Smoothing: 1 (USB2+H05261)
Correct for Electrical Dark: No (USB2+H05261)
Strobe/Lamp Enabled: No (USB2+H05261)
Correct for Detector Non-linearity: No (USB2+H05261)
Correct for Stray Light: No (USB2+H05261)
Number of Pixels in Processed Spectrum: 2048
>>>>>Begin Processed Spectral Data<<<<<
0.00	294.91
1.00	294.91
2.00	274.62
3.00	249.66
4.00	243.42
5.00	236.39
6.00	239.51
7.00	227.03
8.00	232.49
9.00	222.35
10.00	230.15
11.00	230.15
12.00	241.08
13.00	227.03
14.00	219.23
15.00	224.69
16.00	237.95
17.00	262.92
18.00	263.70
19.00	252.00
20.00	257.46
21.00	287.11
22.00	289.45
23.00	306.61
24.00	401.79
25.00	519.60
26.00	614.78
27.00	635.85
28.00	652.23
29.00	664.71
30.00	656.13
31.00	645.99
32.00	656.91
33.00	648.33
34.00	671.73
35.00	653.79
36.00	685.00
37.00	688.12
38.00	709.18
39.00	704.50
40.00	720.89
41.00	738.83
42.00	724.79
43.00	713.08
44.00	713.86
45.00	723.23
46.00	765.36
47.00	741.95
48.00	756.77
49.00	741.17
50.00	767.70
51.00	790.32
52.00	809.83
53.00	803.58
54.00	755.99
55.00	706.06
56.00	720.88
57.00	753.65
58.00	798.12
59.00	804.36
60.00	802.80
61.00	798.12
62.00	775.50
63.00	780.18
64.00	775.50
65.00	798.12
66.00	795.78
67.00	812.17
68.00	812.95
69.00	831.67
70.00	823.87
71.00	795.78
72.00	787.98
73.00	784.86
74.00	818.41
75.00	830.11
76.00	818.41
77.00	806.70
78.00	787.98
79.00	812.95
80.00	814.51
81.00	837.13
82.00	838.69
83.00	844.15
84.00	841.81
85.00	850.39
86.00	839.47
87.00	819.97
88.00	822.31
89.00	841.03
90.00	879.26
91.00	879.26
92.00	905.79
93.00	872.24
94.00	882.38
95.00	862.88
96.00	902.67
97.00	885.50
98.00	908.13
99.00	940.12
100.00	960.40
101.00	948.70
102.00	932.31
103.00	925.29
104.00	908.13
105.00	917.49
106.00	911.25
107.00	924.51
108.00	919.83
109.00	927.63
110.00	940.12
111.00	952.60
112.00	982.24
113.00	989.27
114.00	978.34
115.00	966.64
116.00	990.83
117.00	1015.01
118.00	1036.86
119.00	1063.38
120.00	1046.22
121.00	1026.72
122.00	1023.59
123.00	1044.66
124.00	1054.02
125.00	1053.24
126.00	1031.40
127.00	1022.81
128.00	1024.37
129.00	1063.38
130.00	1083.67
131.00	1092.25
132.00	1086.01
133.00	1080.55
134.00	1057.14
135.00	1082.89
136.00	1122.68
137.00	1135.94
138.00	1118.78
139.00	1126.58
140.00	1152.32
141.00	1142.18
142.00	1125.80
143.00	1078.21
144.00	1105.51
145.00	1104.73
146.00	1167.15
147.00	1143.74
148.00	1164.03
149.00	1165.59
150.00	1171.83
151.00	1196.79
152.00	1191.33
153.00	1233.46
154.00	1225.66
155.00	1266.23
156.00	1246.73
157.00	1245.16
158.00	1217.08
159.00	1227.22
160.00	1235.02
161.00	1227.22
162.00	1248.29
163.00	1261.55
164.00	1289.64
165.00	1284.17
166.00	1299.78
167.00	1300.56
168.00	1307.58
169.00	1313.82
170.00	1332.54
171.00	1342.69
172.00	1356.73
173.00	1367.65
174.00	1358.29
175.00	1315.38
176.00	1322.40
177.00	1330.20
178.00	1370.77
179.00	1341.91
180.00	1349.71
181.00	1335.67
182.00	1355.17
183.00	1384.82
184.00	1411.34
185.00	1391.84
186.00	1410.56
187.00	1449.57
188.00	1487.02
189.00	1476.10
190.00	1444.89
191.00	1456.59
192.00	1443.33
193.00	1469.86
194.00	1501.06
195.00	1551.78
196.00	1568.94
197.00	1565.82
198.00	1556.46
199.00	1524.47
200.00	1509.65
201.00	1504.96
202.00	1525.25
203.00	1535.39
204.00	1547.09
205.00	1575.18
206.00	1585.32
207.00	1568.16
208.00	1526.81
209.00	1575.96
210.00	1597.81
211.00	1624.33
212.00	1585.32
213.00	1576.74
214.00	1629.79
215.00	1629.01
216.00	1679.72
217.00	1636.03
218.00	1683.63
219.00	1681.28
220.00	1753.06
221.00	1735.90
222.00	1720.29
223.00	1672.70
224.00	1658.66
225.00	1689.87
226.00	1696.89
227.00	1748.38
228.00	1757.74
229.00	1768.66
230.00	1750.72
231.00	1747.60
232.00	1774.91
233.00	1785.83
234.00	1813.14
235.00	1824.84
236.00	1841.22
237.00	1845.12
238.00	1871.65
239.00	1921.58
240.00	1956.69
241.00	1962.15
242.00	1944.99
243.00	1911.44
244.00	1919.24
245.00	1928.60
246.00	1946.55
247.00	1944.99
248.00	1969.17
249.00	1973.85
250.00	1987.89
251.00	1983.21
252.00	1978.53
253.00	2016.76
254.00	2025.34
255.00	2118.18
256.00	2134.57
257.00	2139.25
258.00	2126.77
259.00	2111.16
260.00	2110.38
261.00	2108.82
262.00	2143.15
263.00	2196.20
264.00	2193.08
265.00	2182.16
266.00	2175.14
267.00	2208.69
268.00	2219.61
269.00	2218.05
270.00	2245.35
271.00	2253.94
272.00	2339.76
273.00	2334.29
274.00	2363.16
275.00	2339.76
276.00	2362.38
277.00	2387.35
278.00	2392.81
279.00	2396.71
280.00	2397.49
281.00	2386.57
282.00	2427.14
283.00	2438.06
284.00	2456.78
285.00	2438.06
286.00	2417.77
287.00	2417.77
288.00	2458.34
289.00	2486.43
290.00	2536.36
291.00	2531.68
292.00	2537.14
293.00	2534.02
294.00	2580.83
295.00	2651.05
296.00	2661.19
297.00	2612.04
298.00	2593.31
299.00	2599.56
300.00	2599.56
301.00	2555.87
302.00	2536.36
303.00	2572.25
304.00	2619.06
305.00	2646.37
306.00	2633.10
307.00	2643.25
308.00	2644.81
309.00	2678.35
310.00	2693.18
311.00	2722.04
312.00	2673.67
313.00	2665.87
314.00	2660.41
315.00	2744.67
316.00	2774.32
317.00	2757.15
318.00	2754.03
319.00	2726.72
320.00	2789.14
321.00	2805.52
322.00	2820.35
323.00	2791.48
324.00	2794.60
325.00	2846.09
326.00	2875.74
327.00	2887.44
328.00	2878.08
329.00	2910.85
330.00	2938.15
331.00	2917.87
332.00	2887.44
333.00	2849.21
334.00	2901.48
335.00	2950.64
336.00	3001.35
337.00	3030.99
338.00	3042.70
339.00	3057.52
340.00	3048.16
341.00	3101.99
342.00	3068.44
343.00	3123.84
344.00	3104.33
345.00	3151.14
346.00	3108.23
347.00	3125.40
348.00	3112.13
349.00	3127.74
350.00	3123.83
351.00	3201.85
352.00	3236.96
353.00	3322.78
354.00	3291.57
355.00	3263.49
356.00	3195.61
357.00	3237.74
358.00	3270.51
359.00	3318.10
360.00	3297.81
361.00	3361.79
362.00	3378.95
363.00	3400.80
364.00	3361.79
365.00	3327.46
366.00	3383.63
367.00	3435.91
368.00	3471.79
369.00	3428.88
370.00	3425.76
371.00	3419.52
372.00	3428.10
373.00	3445.27
374.00	3462.43
375.00	3531.87
376.00	3574.78
377.00	3651.24
378.00	3676.20
379.00	3668.40
380.00	3651.24
381.00	3639.53
382.00	3624.71
383.00	3634.85
384.00	3675.42
385.00	3744.08
386.00	3802.59
387.00	3818.97
388.00	3859.54
389.00	3914.16
390.00	3957.07
391.00	3939.12
392.00	3909.47
393.00	3907.91
394.00	3984.37
395.00	4052.25
396.00	4091.26
397.00	4139.63
398.00	4099.06
399.00	4165.37
400.00	4109.98
401.00	4213.74
402.00	4227.01
403.00	4305.03
404.00	4357.30
405.00	4352.62
406.00	4351.84
407.00	4262.90
408.00	4216.87
409.00	4234.81
410.00	4265.24
411.00	4315.17
412.00	4308.93
413.00	4340.91
414.00	4351.06
415.00	4371.34
416.00	4415.03
417.00	4457.94
418.00	4459.50
419.00	4417.37
420.00	4429.07
421.00	4482.13
422.00	4528.16
423.00	4540.64
424.00	4532.84
425.00	4548.44
426.00	4546.10
427.00	4538.30
428.00	4497.73
429.00	4507.87
430.00	4499.29
431.00	4507.09
432.00	4494.61
433.00	4500.07
434.00	4557.80
435.00	4583.55
436.00	4629.58
437.00	4643.62
438.00	4712.28
439.00	4764.55
440.00	4829.31
441.00	4828.53
442.00	4833.21
443.00	4825.40
444.00	4816.04
445.00	4815.26
446.00	4791.86
447.00	4828.53
448.00	4811.36
449.00	4798.88
450.00	4797.32
451.00	4858.95
452.00	4897.18
453.00	4895.62
454.00	4915.91
455.00	5002.50
456.00	5042.29
457.00	5070.38
458.00	5070.38
459.00	5103.93
460.00	5123.43
461.00	5105.49
462.00	5109.39
463.00	5141.38
464.00	5235.00
465.00	5301.31
466.00	5359.83
467.00	5313.80
468.00	5310.68
469.00	5258.40
470.00	5325.50
471.00	5368.41
472.00	5400.40
473.00	5431.60
474.00	5420.68
475.00	5505.72
476.00	5511.18
477.00	5569.69
478.00	5600.12
479.00	5658.64
480.00	5693.74
481.00	5692.18
482.00	5657.86
483.00	5624.31
484.00	5593.88
485.00	5616.51
486.00	5686.72
487.00	5701.55
488.00	5743.67
489.00	5794.39
490.00	5867.72
491.00	5921.56
492.00	5962.12
493.00	5997.23
494.00	5978.51
495.00	5945.74
496.00	5968.37
497.00	6028.44
498.00	6070.57
499.00	6067.45
500.00	6076.81
501.00	6076.81
502.00	6128.30
503.00	6129.08
504.00	6122.06
505.00	6134.54
506.00	6201.64
507.00	6268.73
508.00	6288.24
509.00	6299.16
510.00	6326.47
511.00	6386.54
512.00	6427.89
513.00	6471.58
514.00	6475.48
515.00	6494.99
516.00	6505.91
517.00	6540.24
518.00	6557.40
519.00	6541.80
520.00	6587.83
521.00	6607.33
522.00	6674.43
523.00	6692.37
524.00	6719.68
525.00	6728.26
526.00	6685.35
527.00	6673.65
528.00	6634.64
529.00	6649.46
530.00	6694.71
531.00	6800.82
532.00	6856.99
533.00	6873.37
534.00	6894.44
535.00	6977.14
536.00	6948.27
537.00	6903.80
538.00	6801.60
539.00	6864.79
540.00	6874.93
541.00	6917.84
542.00	6935.01
543.00	6960.75
544.00	7026.29
545.00	7114.45
546.00	7218.99
547.00	7276.73
548.00	7265.02
549.00	7297.01
550.00	7321.20
551.00	7401.55
552.00	7382.05
553.00	7373.47
554.00	7326.66
555.00	7392.97
556.00	7403.89
557.00	7517.80
558.00	7570.85
559.00	7640.29
560.00	7624.69
561.00	7633.27
562.00	7644.19
563.00	7690.22
564.00	7686.32
565.00	7902.43
566.00	8047.54
567.00	8138.04
568.00	8078.75
569.00	7974.21
570.00	8067.83
571.00	8172.37
572.00	8219.18
573.00	8226.20
574.00	8194.22
575.00	8226.98
576.00	8282.38
577.00	8366.64
578.00	8507.07
579.00	8506.29
580.00	8520.33
581.00	8520.33
582.00	8607.71
583.00	8688.07
584.00	8767.65
585.00	8830.06
586.00	8887.01
587.00	8884.67
588.00	8929.14
589.00	8965.81
590.00	9118.73
591.00	9141.35
592.00	9191.28
593.00	9248.24
594.00	9398.03
595.00	9523.64
596.00	9629.74
597.00	9716.34
598.00	9838.05
599.00	9942.60
600.00	10012.03
601.00	10021.39
602.00	10107.21
603.00	10182.11
604.00	10250.77
605.00	10326.44
606.00	10426.31
607.00	10461.41
608.00	10445.03
609.00	10517.59
610.00	10628.37
611.00	10629.93
612.00	10597.17
613.00	10689.23
614.00	10810.15
615.00	10892.85
616.00	10966.97
617.00	11072.29
618.00	11288.40
619.00	11352.38
620.00	11436.64
621.00	11509.19
622.00	11604.38
623.00	11750.27
624.00	11815.02
625.00	11863.40
626.00	11882.90
627.00	11988.22
628.00	12143.48
629.00	12336.18
630.00	12551.51
631.00	12719.25
632.00	12748.90
633.00	12755.14
634.00	12752.80
635.00	12791.03
636.00	12839.40
637.00	13027.42
638.00	13226.37
639.00	13308.29
640.00	13375.38
641.00	13388.64
642.00	13487.73
643.00	13574.33
644.00	13831.79
645.00	13940.23
646.00	13963.64
647.00	13893.42
648.00	14022.15
649.00	14242.16
650.00	14425.50
651.00	14586.22
652.00	14590.12
653.00	14630.69
654.00	14611.96
655.00	14701.68
656.00	14893.61
657.00	14968.51
658.00	15098.80
659.00	15163.55
660.00	15337.53
661.00	15449.88
662.00	15619.96
663.00	15573.92
664.00	15708.90
665.00	15656.62
666.00	15921.10
667.00	16027.99
668.00	16287.01
669.00	16392.33
670.00	16429.00
671.00	16359.56
672.00	16382.97
673.00	16468.01
674.00	16611.56
675.00	16641.99
676.00	16716.89
677.00	16827.67
678.00	17082.01
679.00	17298.12
680.00	17500.97
681.00	17599.27
682.00	17653.10
683.00	17696.79
684.00	17708.49
685.00	17783.39
686.00	17896.52
687.00	18145.39
688.00	18278.02
689.00	18307.67
690.00	18453.56
691.00	18562.79
692.00	18728.97
693.00	18773.44
694.00	18856.92
695.00	18927.13
696.00	18997.35
697.00	19012.17
698.00	19187.71
699.00	19239.20
700.00	19434.25
701.00	19459.99
702.00	19482.62
703.00	19598.87
704.00	19733.06
705.00	19903.14
706.00	19992.08
707.00	20127.05
708.00	20162.15
709.00	20262.02
710.00	20260.46
711.00	20467.20
712.00	20531.18
713.00	20801.12
714.00	20923.61
715.00	21016.45
716.00	21087.45
717.00	21178.73
718.00	21333.20
719.00	21346.47
720.00	21308.24
721.00	21249.72
722.00	21295.75
723.00	21408.10
724.00	21663.22
725.00	21760.74
726.00	21704.57
727.00	21850.46
728.00	21970.61
729.00	22225.73
730.00	22181.26
731.00	22193.74
732.00	22229.63
733.00	22170.33
734.00	22128.20
735.00	22132.89
736.00	22387.22
737.00	22624.40
738.00	22796.04
739.00	22807.74
740.00	22793.70
741.00	22946.61
742.00	23112.01
743.00	23269.61
744.00	23241.52
745.00	23278.97
746.00	23370.25
747.00	23568.41
748.00	23585.58
749.00	23686.22
750.00	23734.59
751.00	23681.54
752.00	23789.20
753.00	23687.00
754.00	23896.09
755.00	23803.25
756.00	23948.36
757.00	23965.53
758.00	24208.94
759.00	24319.73
760.00	24613.07
761.00	24665.35
762.00	24852.59
763.00	24891.60
764.00	25055.43
765.00	25176.36
766.00	25273.10
767.00	25351.90
768.00	25280.13
769.00	25217.71
770.00	25382.33
771.00	25572.69
772.00	25914.41
773.00	25944.06
774.00	26022.08
775.00	25932.36
776.00	25976.83
777.00	26086.05
778.00	26176.55
779.00	26137.54
780.00	26055.62
781.00	26159.39
782.00	26374.72
783.00	26700.05
784.00	26778.07
785.00	26758.56
786.00	26728.92
787.00	26856.09
788.00	27051.91
789.00	27287.53
790.00	27455.26
791.00	27501.29
792.00	27370.22
793.00	27344.48
794.00	27438.10
795.00	27576.97
796.00	27743.15
797.00	27843.79
798.00	28013.09
799.00	28027.14
800.00	28202.68
801.00	28279.13
802.00	28500.70
803.00	28485.88
804.00	28629.43
805.00	28535.03
806.00	28581.84
807.00	28488.22
808.00	28560.78
809.00	28672.34
810.00	28814.34
811.00	29038.25
812.00	29235.63
813.00	29368.26
814.00	29390.11
815.00	29482.95
816.00	29600.76
817.00	29840.27
818.00	29850.41
819.00	29833.25
820.00	29790.34
821.00	29901.12
822.00	30111.77
823.00	30095.39
824.00	30065.74
825.00	29997.09
826.00	29929.99
827.00	30080.57
828.00	30164.04
829.00	30515.12
830.00	30750.74
831.00	30838.90
832.00	30924.72
833.00	30709.39
834.00	30905.21
835.00	30973.87
836.00	31284.38
837.00	31331.19
838.00	31320.27
839.00	31256.29
840.00	31206.36
841.00	31341.33
842.00	31499.71
843.00	31723.62
844.00	31729.86
845.00	31770.43
846.00	31902.28
847.00	32078.60
848.00	32073.14
849.00	32113.71
850.00	32142.58
851.00	32296.27
852.00	32291.59
853.00	32316.56
854.00	32205.77
855.00	32233.08
856.00	32247.90
857.00	32384.43
858.00	32478.83
859.00	32620.83
860.00	32686.36
861.00	32666.86
862.00	32782.32
863.00	32961.76
864.00	33094.39
865.00	33032.76
866.00	33260.57
867.00	33567.96
868.00	33744.28
869.00	33819.18
870.00	33844.15
871.00	34110.19
872.00	34126.57
873.00	34174.94
874.00	34048.55
875.00	33983.80
876.00	33980.68
877.00	34171.82
878.00	34359.84
879.00	34398.07
880.00	34369.21
881.00	34162.46
882.00	34079.76
883.00	34096.14
884.00	34290.41
885.00	34327.08
886.00	34363.75
887.00	34374.67
888.00	34582.20
889.00	34751.49
890.00	34880.22
891.00	35012.07
892.00	35147.82
893.00	35027.68
894.00	35088.53
895.00	35043.28
896.00	35319.46
897.00	35335.07
898.00	35394.36
899.00	35512.17
900.00	35691.61
901.00	35833.60
902.00	36005.24
903.00	36151.91
904.00	36370.36
905.00	36531.86
906.00	36449.94
907.00	36292.35
908.00	36136.31
909.00	36368.02
910.00	36359.44
911.00	36234.61
912.00	35881.19
913.00	35759.48
914.00	35816.44
915.00	36100.42
916.00	36414.83
917.00	36613.00
918.00	36595.06
919.00	36492.85
920.00	36532.64
921.00	36595.84
922.00	36877.48
923.00	36960.96
924.00	37064.72
925.00	37047.56
926.00	37197.35
927.00	37267.57
928.00	37354.17
929.00	37449.35
930.00	37673.26
931.00	37808.23
932.00	37843.34
933.00	37921.36
934.00	37930.72
935.00	37752.06
936.00	37672.48
937.00	37718.51
938.00	37751.28
939.00	37860.51
940.00	37889.37
941.00	37968.95
942.00	37794.19
943.00	37925.26
944.00	38102.36
945.00	38284.92
946.00	38298.97
947.00	38263.08
948.00	38339.54
949.00	38247.47
950.00	38385.57
951.00	38355.92
952.00	38133.57
953.00	38065.69
954.00	38134.35
955.00	38412.09
956.00	38695.30
957.00	38936.37
958.00	39432.57
959.00	39587.04
960.00	39718.89
961.00	39501.22
962.00	39459.87
963.00	39431.01
964.00	39707.97
965.00	39910.03
966.00	40123.02
967.00	40194.02
968.00	40119.12
969.00	39988.05
970.00	39997.41
971.00	40167.49
972.00	40265.80
973.00	40152.67
974.00	40257.21
975.00	40343.81
976.00	40228.35
977.00	39963.09
978.00	39778.96
979.00	39793.01
980.00	39810.95
981.00	40211.18
982.00	40453.82
983.00	40695.67
984.00	40694.11
985.00	40844.69
986.00	40851.71
987.00	40720.64
988.00	40963.28
989.00	40927.39
990.00	41132.57
991.00	40766.67
992.00	40920.37
993.00	40846.25
994.00	41053.00
995.00	41248.04
996.00	41386.13
997.00	41671.68
998.00	41814.45
999.00	42126.52
1000.00	42157.73
1001.00	42238.87
1002.00	42039.92
1003.00	41842.54
1004.00	41936.16
1005.00	41780.12
1006.00	42035.24
1007.00	41965.81
1008.00	42498.67
1009.00	42521.29
1010.00	42621.16
1011.00	42257.59
1012.00	42205.32
1013.00	41945.52
1014.00	42181.91
1015.00	42284.12
1016.00	42639.10
1017.00	42923.08
1018.00	43241.40
1019.00	43358.42
1020.00	43147.78
1021.00	42893.44
1022.00	42759.25
1023.00	42653.92
1024.00	42830.24
1025.00	43015.93
1026.00	43370.91
1027.00	43573.75
1028.00	43663.47
1029.00	43650.21
1030.00	43610.42
1031.00	43654.11
1032.00	43782.84
1033.00	43927.17
1034.00	43897.53
1035.00	43995.05
1036.00	44034.84
1037.00	44051.22
1038.00	44029.38
1039.00	43964.62
1040.00	44093.35
1041.00	44311.02
1042.00	44508.41
1043.00	44704.23
1044.00	44735.44
1045.00	44812.68
1046.00	44627.77
1047.00	44361.73
1048.00	44160.45
1049.00	44246.27
1050.00	44593.45
1051.00	44929.70
1052.00	45095.88
1053.00	45120.07
1054.00	44999.14
1055.00	44953.11
1056.00	44903.18
1057.00	45056.87
1058.00	45424.34
1059.00	45476.61
1060.00	45535.12
1061.00	45272.98
1062.00	45246.46
1063.00	45162.98
1064.00	45103.68
1065.00	45293.27
1066.00	45486.75
1067.00	45724.71
1068.00	45751.23
1069.00	45513.28
1070.00	45443.84
1071.00	45365.82
1072.00	45588.17
1073.00	45725.49
1074.00	45972.02
1075.00	46046.92
1076.00	45963.44
1077.00	45975.14
1078.00	46122.60
1079.00	46150.68
1080.00	46075.79
1081.00	45867.48
1082.00	46046.92
1083.00	46050.82
1084.00	46102.31
1085.00	46120.26
1086.00	46263.81
1087.00	46510.35
1088.00	46666.38
1089.00	46962.07
1090.00	46983.13
1091.00	47050.23
1092.00	46950.37
1093.00	47014.34
1094.00	47052.57
1095.00	47303.01
1096.00	47411.45
1097.00	47453.58
1098.00	47256.98
1099.00	47288.18
1100.00	47256.98
1101.00	47203.14
1102.00	46966.75
1103.00	46986.25
1104.00	47122.79
1105.00	47364.64
1106.00	47312.37
1107.00	47250.74
1108.00	47370.88
1109.00	47544.86
1110.00	47735.23
1111.00	47642.38
1112.00	47542.52
1113.00	47243.71
1114.00	47232.79
1115.00	47200.80
1116.00	47427.84
1117.00	47548.76
1118.00	47778.92
1119.00	47861.61
1120.00	47785.16
1121.00	47682.95
1122.00	47530.04
1123.00	47418.47
1124.00	47430.18
1125.00	47459.82
1126.00	47654.09
1127.00	47701.68
1128.00	47744.59
1129.00	47821.83
1130.00	47813.24
1131.00	48009.85
1132.00	47995.81
1133.00	48006.73
1134.00	47874.10
1135.00	47854.59
1136.00	48114.39
1137.00	48228.30
1138.00	48244.68
1139.00	48257.95
1140.00	48305.54
1141.00	48303.98
1142.00	48403.84
1143.00	48417.10
1144.00	48601.22
1145.00	48370.29
1146.00	48374.97
1147.00	48122.19
1148.00	48114.39
1149.00	48084.75
1150.00	48192.41
1151.00	48344.55
1152.00	48480.30
1153.00	48676.90
1154.00	48604.34
1155.00	48464.69
1156.00	48265.75
1157.00	48171.35
1158.00	48150.28
1159.00	48194.75
1160.00	48502.14
1161.00	48819.67
1162.00	49079.47
1163.00	49049.05
1164.00	48990.53
1165.00	48986.63
1166.00	48872.73
1167.00	48726.05
1168.00	48624.63
1169.00	48664.42
1170.00	48664.42
1171.00	48720.59
1172.00	48695.63
1173.00	48806.41
1174.00	48820.45
1175.00	48822.79
1176.00	48800.17
1177.00	48676.12
1178.00	48575.48
1179.00	48514.62
1180.00	48641.79
1181.00	48934.36
1182.00	49102.88
1183.00	49201.96
1184.00	49219.91
1185.00	49257.35
1186.00	49284.66
1187.00	49316.65
1188.00	49340.05
1189.00	49410.27
1190.00	49428.21
1191.00	49461.76
1192.00	49269.06
1193.00	49180.12
1194.00	49126.28
1195.00	49173.10
1196.00	49076.35
1197.00	49003.02
1198.00	49027.98
1199.00	49110.68
1200.00	49041.24
1201.00	48976.49
1202.00	48993.65
1203.00	49237.07
1204.00	49434.45
1205.00	49562.40
1206.00	49503.89
1207.00	49490.63
1208.00	49401.69
1209.00	49266.72
1210.00	49095.86
1211.00	48995.21
1212.00	49160.61
1213.00	49292.46
1214.00	49182.46
1215.00	49173.88
1216.00	49083.37
1217.00	49351.76
1218.00	49342.39
1219.00	49426.65
1220.00	49396.23
1221.00	49338.49
1222.00	49336.15
1223.00	49312.75
1224.00	49288.56
1225.00	49230.83
1226.00	49316.65
1227.00	49432.11
1228.00	49460.20
1229.00	49521.83
1230.00	49575.67
1231.00	49812.06
1232.00	49809.72
1233.00	49895.54
1234.00	49864.33
1235.00	49885.40
1236.00	49918.95
1237.00	49957.95
1238.00	50041.43
1239.00	50078.10
1240.00	50231.02
1241.00	50280.17
1242.00	50195.13
1243.00	50197.47
1244.00	50253.64
1245.00	50387.83
1246.00	50455.71
1247.00	50481.45
1248.00	50546.99
1249.00	50557.91
1250.00	50415.92
1251.00	50305.91
1252.00	50085.90
1253.00	50113.99
1254.00	50073.42
1255.00	50055.48
1256.00	50099.17
1257.00	50146.76
1258.00	50205.27
1259.00	50179.53
1260.00	50218.53
1261.00	50375.35
1262.00	50655.43
1263.00	50867.64
1264.00	50996.37
1265.00	51058.79
1266.00	51123.54
1267.00	51216.38
1268.00	51151.63
1269.00	51242.91
1270.00	51043.96
1271.00	51036.16
1272.00	50885.59
1273.00	50830.97
1274.00	50870.76
1275.00	50757.64
1276.00	50770.90
1277.00	50652.31
1278.00	50753.74
1279.00	50928.50
1280.00	50947.22
1281.00	51072.83
1282.00	51030.70
1283.00	51222.62
1284.00	51126.66
1285.00	51247.59
1286.00	51291.28
1287.00	51312.34
1288.00	51285.82
1289.00	51366.18
1290.00	51480.08
1291.00	51475.40
1292.00	51501.93
1293.00	51613.49
1294.00	51705.55
1295.00	51633.00
1296.00	51571.36
1297.00	51449.66
1298.00	51356.03
1299.00	51178.15
1300.00	51109.50
1301.00	51043.96
1302.00	51174.25
1303.00	51230.43
1304.00	51385.68
1305.00	51411.43
1306.00	51533.14
1307.00	51476.18
1308.00	51511.29
1309.00	51423.13
1310.00	51470.72
1311.00	51407.53
1312.00	51675.13
1313.00	51800.74
1314.00	51874.07
1315.00	51941.17
1316.00	52087.06
1317.00	52174.44
1318.00	52051.17
1319.00	51886.56
1320.00	51912.30
1321.00	52012.95
1322.00	52133.09
1323.00	52181.46
1324.00	52256.36
1325.00	52284.45
1326.00	52427.22
1327.00	52447.50
1328.00	52542.69
1329.00	52725.25
1330.00	52803.27
1331.00	52765.04
1332.00	52442.04
1333.00	52222.03
1334.00	52080.04
1335.00	51985.64
1336.00	51874.85
1337.00	51874.07
1338.00	51945.07
1339.00	52122.95
1340.00	52076.14
1341.00	52133.09
1342.00	52107.35
1343.00	52269.62
1344.00	52268.06
1345.00	52246.22
1346.00	52231.40
1347.00	52332.04
1348.00	52506.80
1349.00	52458.43
1350.00	52339.84
1351.00	52264.94
1352.00	52264.16
1353.00	52309.41
1354.00	52281.33
1355.00	52342.18
1356.00	52290.69
1357.00	52434.24
1358.00	52353.10
1359.00	52459.99
1360.00	52317.21
1361.00	52376.51
1362.00	52335.16
1363.00	52335.94
1364.00	52388.99
1365.00	52534.88
1366.00	52600.42
1367.00	52588.72
1368.00	52448.28
1369.00	52587.16
1370.00	52601.20
1371.00	52683.12
1372.00	52602.76
1373.00	52750.99
1374.00	52794.68
1375.00	52868.02
1376.00	52852.42
1377.00	52828.23
1378.00	52711.20
1379.00	52609.00
1380.00	52638.65
1381.00	52554.39
1382.00	52558.29
1383.00	52514.60
1384.00	52507.58
1385.00	52442.82
1386.00	52171.32
1387.00	52086.28
1388.00	51990.32
1389.00	52056.64
1390.00	52257.14
1391.00	52330.48
1392.00	52541.91
1393.00	52543.47
1394.00	52614.46
1395.00	52469.35
1396.00	52434.24
1397.00	52321.12
1398.00	52406.94
1399.00	52329.70
1400.00	52336.72
1401.00	52216.57
1402.00	52278.99
1403.00	52310.19
1404.00	52364.03
1405.00	52261.04
1406.00	52187.70
1407.00	52174.44
1408.00	52183.02
1409.00	52282.89
1410.00	52419.42
1411.00	52569.21
1412.00	52741.63
1413.00	52778.30
1414.00	52782.98
1415.00	52697.94
1416.00	52623.04
1417.00	52621.48
1418.00	52655.81
1419.00	52786.88
1420.00	52819.65
1421.00	52729.93
1422.00	52630.07
1423.00	52566.87
1424.00	52637.09
1425.00	52577.01
1426.00	52535.66
1427.00	52567.65
1428.00	52513.82
1429.00	52469.35
1430.00	52386.65
1431.00	52342.96
1432.00	52364.81
1433.00	52133.09
1434.00	52055.07
1435.00	51953.65
1436.00	51995.00
1437.00	51969.26
1438.00	52051.17
1439.00	52105.79
1440.00	52133.09
1441.00	52070.68
1442.00	52097.98
1443.00	52130.75
1444.00	51996.56
1445.00	51837.40
1446.00	51966.13
1447.00	52197.85
1448.00	52379.63
1449.00	52367.93
1450.00	52348.42
1451.00	52381.19
1452.00	52422.54
1453.00	52456.09
1454.00	52482.61
1455.00	52440.48
1456.00	52241.54
1457.00	52124.51
1458.00	52064.44
1459.00	51952.87
1460.00	51910.74
1461.00	51881.09
1462.00	51966.91
1463.00	51907.62
1464.00	51989.54
1465.00	52048.83
1466.00	52150.26
1467.00	52059.76
1468.00	52116.71
1469.00	52083.16
1470.00	52038.69
1471.00	52098.76
1472.00	52027.77
1473.00	52072.24
1474.00	51981.74
1475.00	52122.95
1476.00	52225.15
1477.00	52339.84
1478.00	52249.34
1479.00	52223.59
1480.00	51975.50
1481.00	51926.35
1482.00	51806.20
1483.00	51877.97
1484.00	51832.72
1485.00	51716.48
1486.00	51625.20
1487.00	51526.89
1488.00	51508.17
1489.00	51584.63
1490.00	51544.06
1491.00	51653.28
1492.00	51537.04
1493.00	51572.92
1494.00	51441.07
1495.00	51523.77
1496.00	51646.26
1497.00	51714.14
1498.00	51653.28
1499.00	51689.95
1500.00	51738.32
1501.00	51755.49
1502.00	51806.98
1503.00	51792.93
1504.00	51803.86
1505.00	51887.34
1506.00	51835.84
1507.00	51783.57
1508.00	51480.08
1509.00	51385.68
1510.00	51430.15
1511.00	51508.17
1512.00	51606.47
1513.00	51616.61
1514.00	51639.24
1515.00	51660.30
1516.00	51573.70
1517.00	51507.39
1518.00	51351.35
1519.00	51389.58
1520.00	51415.33
1521.00	51448.10
1522.00	51405.97
1523.00	51493.35
1524.00	51471.50
1525.00	51385.68
1526.00	51179.71
1527.00	51140.71
1528.00	51169.57
1529.00	51130.56
1530.00	51184.40
1531.00	51164.11
1532.00	51152.41
1533.00	51202.34
1534.00	51201.56
1535.00	51281.92
1536.00	51363.84
1537.00	51567.46
1538.00	51629.10
1539.00	51562.78
1540.00	51501.15
1541.00	51450.44
1542.00	51500.37
1543.00	51483.98
1544.00	51530.79
1545.00	51500.37
1546.00	51470.72
1547.00	51276.46
1548.00	51117.30
1549.00	51019.78
1550.00	51239.01
1551.00	51294.40
1552.00	51214.04
1553.00	51112.62
1554.00	51069.71
1555.00	51178.15
1556.00	51286.60
1557.00	51339.65
1558.00	51399.72
1559.00	51174.25
1560.00	50937.86
1561.00	50820.05
1562.00	50795.09
1563.00	50886.37
1564.00	50718.63
1565.00	50768.56
1566.00	50600.04
1567.00	50533.73
1568.00	50282.51
1569.00	50181.09
1570.00	50131.93
1571.00	50193.57
1572.00	50334.00
1573.00	50429.18
1574.00	50529.05
1575.00	50461.17
1576.00	50458.05
1577.00	50304.35
1578.00	50429.18
1579.00	50348.82
1580.00	50287.97
1581.00	50263.78
1582.00	50500.96
1583.00	50795.09
1584.00	50835.66
1585.00	50761.54
1586.00	50476.77
1587.00	50407.34
1588.00	50436.98
1589.00	50703.03
1590.00	50641.39
1591.00	50477.55
1592.00	50173.28
1593.00	50098.39
1594.00	50090.58
1595.00	50195.13
1596.00	50358.19
1597.00	50270.03
1598.00	50355.85
1599.00	50283.29
1600.00	50330.88
1601.00	50160.02
1602.00	50170.94
1603.00	50113.99
1604.00	50163.92
1605.00	50112.43
1606.00	50057.04
1607.00	49932.21
1608.00	49797.24
1609.00	49716.88
1610.00	49709.86
1611.00	49860.43
1612.00	49909.58
1613.00	50024.27
1614.00	49940.79
1615.00	49984.48
1616.00	50004.77
1617.00	50128.03
1618.00	50302.01
1619.00	50416.70
1620.00	50478.33
1621.00	50500.18
1622.00	50551.67
1623.00	50430.74
1624.00	50447.13
1625.00	50254.42
1626.00	50121.79
1627.00	49911.14
1628.00	49827.66
1629.00	49887.74
1630.00	50003.20
1631.00	50068.74
1632.00	50195.13
1633.00	50144.42
1634.00	50167.82
1635.00	50096.83
1636.00	50054.70
1637.00	50041.43
1638.00	49808.16
1639.00	49788.66
1640.00	49684.89
1641.00	49783.19
1642.00	49620.14
1643.00	49492.19
1644.00	49386.08
1645.00	49483.61
1646.00	49643.54
1647.00	49599.85
1648.00	49628.72
1649.00	49503.89
1650.00	49678.65
1651.00	49410.27
1652.00	49407.15
1653.00	49297.14
1654.00	49423.53
1655.00	49389.20
1656.00	49206.64
1657.00	49183.24
1658.00	49074.79
1659.00	49049.05
1660.00	48946.84
1661.00	48854.00
1662.00	48942.16
1663.00	49255.01
1664.00	49613.12
1665.00	49737.16
1666.00	49571.77
1667.00	49333.03
1668.00	49280.76
1669.00	49201.96
1670.00	49174.66
1671.00	49035.00
1672.00	49079.47
1673.00	49090.40
1674.00	49321.33
1675.00	49235.51
1676.00	49304.16
1677.00	49131.75
1678.00	49142.67
1679.00	49023.30
1680.00	48919.54
1681.00	48729.17
1682.00	48640.23
1683.00	48488.88
1684.00	48616.05
1685.00	48761.16
1686.00	48962.45
1687.00	49046.71
1688.00	49003.80
1689.00	48949.18
1690.00	48726.83
1691.00	48554.41
1692.00	48411.64
1693.00	48272.77
1694.00	48000.49
1695.00	47884.24
1696.00	47915.45
1697.00	48230.64
1698.00	48355.47
1699.00	48586.40
1700.00	48726.05
1701.00	48914.08
1702.00	48867.26
1703.00	48735.41
1704.00	48627.75
1705.00	48588.74
1706.00	48492.78
1707.00	48342.99
1708.00	48299.30
1709.00	48294.61
1710.00	48237.66
1711.00	48101.91
1712.00	47918.57
1713.00	47931.05
1714.00	47735.23
1715.00	47736.79
1716.00	47665.01
1717.00	47813.24
1718.00	47924.81
1719.00	47799.98
1720.00	47830.41
1721.00	47547.20
1722.00	47618.20
1723.00	47416.91
1724.00	47447.34
1725.00	47383.37
1726.00	47378.68
1727.00	47237.47
1728.00	46949.59
1729.00	46809.15
1730.00	46887.95
1731.00	47020.58
1732.00	46865.33
1733.00	46557.94
1734.00	46366.79
1735.00	46285.65
1736.00	46396.44
1737.00	46380.06
1738.00	46231.04
1739.00	46106.99
1740.00	45918.97
1741.00	45926.77
1742.00	45773.08
1743.00	45711.44
1744.00	45574.13
1745.00	45539.80
1746.00	45466.47
1747.00	45356.46
1748.00	45291.71
1749.00	45168.44
1750.00	45244.12
1751.00	45049.07
1752.00	45159.08
1753.00	44892.26
1754.00	44868.85
1755.00	44651.18
1756.00	44689.41
1757.00	44671.46
1758.00	44474.86
1759.00	44480.32
1760.00	44415.57
1761.00	44549.76
1762.00	44367.20
1763.00	44196.34
1764.00	43940.44
1765.00	43800.01
1766.00	43774.26
1767.00	43587.02
1768.00	43590.92
1769.00	43600.28
1770.00	43924.83
1771.00	44046.54
1772.00	44062.93
1773.00	43710.28
1774.00	43436.44
1775.00	43091.60
1776.00	43217.21
1777.00	43189.13
1778.00	43328.00
1779.00	43173.52
1780.00	43288.21
1781.00	43040.11
1782.00	43022.95
1783.00	42759.25
1784.00	42765.49
1785.00	42635.20
1786.00	42315.33
1787.00	42152.27
1788.00	42009.50
1789.00	41923.68
1790.00	41749.70
1791.00	41531.25
1792.00	41388.47
1793.00	41191.87
1794.00	40960.94
1795.00	40867.31
1796.00	40692.55
1797.00	40635.60
1798.00	40359.42
1799.00	40282.18
1800.00	40119.90
1801.00	40194.80
1802.00	40070.75
1803.00	39748.54
1804.00	39341.28
1805.00	39088.51
1806.00	38925.45
1807.00	39048.72
1808.00	38895.02
1809.00	38981.62
1810.00	38919.21
1811.00	38949.64
1812.00	38835.73
1813.00	38514.30
1814.00	38347.34
1815.00	38191.30
1816.00	38135.91
1817.00	37906.54
1818.00	37865.97
1819.00	37810.57
1820.00	37924.48
1821.00	37812.13
1822.00	37665.46
1823.00	37396.30
1824.00	37155.22
1825.00	36778.40
1826.00	36531.86
1827.00	36454.62
1828.00	36549.81
1829.00	36534.98
1830.00	35967.01
1831.00	35815.66
1832.00	35617.49
1833.00	35797.71
1834.00	35589.41
1835.00	35587.07
1836.00	35127.54
1837.00	34852.14
1838.00	34417.58
1839.00	34439.42
1840.00	34129.69
1841.00	34015.79
1842.00	33854.29
1843.00	33812.94
1844.00	33493.85
1845.00	33187.24
1846.00	32926.66
1847.00	32669.20
1848.00	32481.17
1849.00	32245.56
1850.00	32273.65
1851.00	32182.37
1852.00	32035.69
1853.00	31853.13
1854.00	31721.28
1855.00	31581.63
1856.00	31370.98
1857.00	31115.86
1858.00	30950.46
1859.00	31000.40
1860.00	30877.13
1861.00	30838.90
1862.00	30537.75
1863.00	30472.99
1864.00	30243.62
1865.00	30023.61
1866.00	29937.79
1867.00	29963.54
1868.00	29848.85
1869.00	29564.87
1870.00	29227.05
1871.00	29024.20
1872.00	28778.45
1873.00	28535.03
1874.00	28277.57
1875.00	28108.27
1876.00	27957.70
1877.00	27738.47
1878.00	27480.23
1879.00	27217.31
1880.00	27050.35
1881.00	26913.82
1882.00	26873.25
1883.00	26647.78
1884.00	26516.71
1885.00	26240.53
1886.00	26118.04
1887.00	25962.00
1888.00	25817.67
1889.00	25562.55
1890.00	25502.48
1891.00	25429.14
1892.00	25488.43
1893.00	25264.52
1894.00	25046.07
1895.00	24875.99
1896.00	24673.93
1897.00	24445.34
1898.00	24180.07
1899.00	24147.31
1900.00	24173.05
1901.00	24192.56
1902.00	24030.28
1903.00	24024.04
1904.00	23814.17
1905.00	23691.68
1906.00	23367.91
1907.00	23184.57
1908.00	23035.55
1909.00	22838.17
1910.00	22819.44
1911.00	22617.38
1912.00	22324.81
1913.00	21969.83
1914.00	21788.05
1915.00	21792.73
1916.00	21614.07
1917.00	21468.95
1918.00	21243.48
1919.00	21162.34
1920.00	21058.58
1921.00	20960.28
1922.00	20891.62
1923.00	20701.26
1924.00	20499.97
1925.00	20255.00
1926.00	19971.79
1927.00	19792.35
1928.00	19676.10
1929.00	19690.15
1930.00	19709.65
1931.00	19510.71
1932.00	19423.33
1933.00	19238.42
1934.00	19009.83
1935.00	18760.17
1936.00	18657.97
1937.00	18707.12
1938.00	18525.34
1939.00	18401.29
1940.00	18271.78
1941.00	18192.98
1942.00	18031.49
1943.00	17940.21
1944.00	17774.03
1945.00	17588.35
1946.00	17460.40
1947.00	17473.66
1948.00	17397.20
1949.00	17290.32
1950.00	17110.88
1951.00	16959.52
1952.00	16854.98
1953.00	16751.99
1954.00	16773.06
1955.00	16679.44
1956.00	16510.92
1957.00	16370.49
1958.00	16131.75
1959.00	16118.49
1960.00	15977.28
1961.00	15903.94
1962.00	15714.36
1963.00	15566.90
1964.00	15507.61
1965.00	15497.47
1966.00	15369.52
1967.00	15179.93
1968.00	15013.76
1969.00	14888.15
1970.00	14803.89
1971.00	14694.66
1972.00	14660.34
1973.00	14622.11
1974.00	14473.87
1975.00	14396.64
1976.00	14267.91
1977.00	14228.12
1978.00	14117.33
1979.00	13938.67
1980.00	13861.43
1981.00	13813.06
1982.00	13779.51
1983.00	13659.37
1984.00	13449.50
1985.00	13390.98
1986.00	13364.46
1987.00	13327.79
1988.00	13270.84
1989.00	13169.41
1990.00	13166.29
1991.00	13096.08
1992.00	12918.98
1993.00	12776.20
1994.00	12695.07
1995.00	12695.07
1996.00	12580.38
1997.00	12459.45
1998.00	12268.31
1999.00	12212.92
2000.00	12214.48
2001.00	12220.72
2002.00	12187.95
2003.00	12005.39
2004.00	11946.09
2005.00	11730.76
2006.00	11666.79
2007.00	11571.61
2008.00	11585.65
2009.00	11548.98
2010.00	11528.70
2011.00	11502.95
2012.00	11465.50
2013.00	11424.94
2014.00	11290.74
2015.00	11197.90
2016.00	11119.89
2017.00	11040.31
2018.00	11008.32
2019.00	10860.87
2020.00	10917.82
2021.00	10810.93
2022.00	10733.70
2023.00	10584.68
2024.00	10533.97
2025.00	10621.35
2026.00	10580.78
2027.00	10522.27
2028.00	10378.72
2029.00	10377.94
2030.00	10321.76
2031.00	10266.37
2032.00	10168.85
2033.00	10104.09
2034.00	10011.25
2035.00	9973.02
2036.00	9934.01
2037.00	9918.41
2038.00	9826.35
2039.00	9734.29
2040.00	9609.46
2041.00	9606.34
2042.00	9577.47
2043.00	9542.36
2044.00	9447.96
2045.00	9428.46
2046.00	9426.12
2047.00	9366.82
>>>>>End Processed Spectral Data<<<<<
