SpectraSuite Data File
++++++++++++++++++++++++++++++++++++
Date: Thu Nov 16 14:07:21 EST 2017
User: cheriyan
Dark Spectrum Present: No
Reference Spectrum Present: No
Number of Sampled Component Spectra: 1
Spectrometers: USB2+H05261
Integration Time (usec): 100000 (USB2+H05261)
Spectra Averaged: 1 (USB2+H05261)
Boxcar Smoothing: 1 (USB2+H05261)
Correct for Electrical Dark: No (USB2+H05261)
Strobe/Lamp Enabled: No (USB2+H05261)
Correct for Detector Non-linearity: No (USB2+H05261)
Correct for Stray Light: No (USB2+H05261)
Number of Pixels in Processed Spectrum: 2048
>>>>>Begin Processed Spectral Data<<<<<
0.00	355.76
1.00	355.76
2.00	323.77
3.00	298.81
4.00	275.40
5.00	266.04
6.00	251.22
7.00	227.81
8.00	226.25
9.00	222.35
10.00	220.01
11.00	212.99
12.00	208.31
13.00	204.41
14.00	227.03
15.00	234.83
16.00	259.02
17.00	259.80
18.00	273.06
19.00	279.30
20.00	269.16
21.00	283.98
22.00	298.03
23.00	353.42
24.00	413.49
25.00	535.98
26.00	614.00
27.00	681.88
28.00	672.51
29.00	709.96
30.00	692.80
31.00	685.00
32.00	670.95
33.00	673.29
34.00	698.26
35.00	718.54
36.00	741.17
37.00	757.55
38.00	727.13
39.00	712.30
40.00	702.16
41.00	718.54
42.00	738.05
43.00	737.27
44.00	772.38
45.00	767.70
46.00	801.24
47.00	788.76
48.00	804.36
49.00	777.84
50.00	755.99
51.00	769.26
52.00	786.42
53.00	806.70
54.00	795.78
55.00	781.74
56.00	796.56
57.00	806.70
58.00	798.12
59.00	770.04
60.00	754.43
61.00	761.45
62.00	763.79
63.00	768.48
64.00	809.05
65.00	819.97
66.00	844.93
67.00	813.73
68.00	815.29
69.00	790.32
70.00	792.66
71.00	776.28
72.00	791.10
73.00	787.20
74.00	805.14
75.00	813.73
76.00	822.31
77.00	816.85
78.00	800.46
79.00	822.31
80.00	867.56
81.00	861.32
82.00	845.71
83.00	844.93
84.00	903.45
85.00	925.29
86.00	897.99
87.00	872.24
88.00	873.02
89.00	898.77
90.00	912.81
91.00	935.43
92.00	917.49
93.00	910.47
94.00	868.34
95.00	854.30
96.00	867.56
97.00	893.30
98.00	950.26
99.00	961.18
100.00	970.54
101.00	912.03
102.00	893.30
103.00	920.61
104.00	970.54
105.00	973.66
106.00	935.43
107.00	926.07
108.00	954.16
109.00	972.10
110.00	981.46
111.00	961.96
112.00	929.97
113.00	901.11
114.00	936.21
115.00	977.56
116.00	1033.74
117.00	1047.00
118.00	1086.79
119.00	1084.45
120.00	1038.42
121.00	1018.13
122.00	986.93
123.00	1016.57
124.00	1025.93
125.00	1036.86
126.00	1029.06
127.00	1017.35
128.00	1029.84
129.00	1034.52
130.00	1043.10
131.00	1083.67
132.00	1101.61
133.00	1124.24
134.00	1111.75
135.00	1134.38
136.00	1126.58
137.00	1125.02
138.00	1113.31
139.00	1108.63
140.00	1149.20
141.00	1129.70
142.00	1136.72
143.00	1105.51
144.00	1146.86
145.00	1147.64
146.00	1145.30
147.00	1160.91
148.00	1194.45
149.00	1224.88
150.00	1188.99
151.00	1156.22
152.00	1163.25
153.00	1192.11
154.00	1238.92
155.00	1249.07
156.00	1238.14
157.00	1242.82
158.00	1213.18
159.00	1238.14
160.00	1211.62
161.00	1242.04
162.00	1253.75
163.00	1277.15
164.00	1270.13
165.00	1271.69
166.00	1255.31
167.00	1267.01
168.00	1224.10
169.00	1256.09
170.00	1285.73
171.00	1329.42
172.00	1325.52
173.00	1306.02
174.00	1298.22
175.00	1297.44
176.00	1330.98
177.00	1377.02
178.00	1373.11
179.00	1326.30
180.00	1291.98
181.00	1335.67
182.00	1407.44
183.00	1421.49
184.00	1405.88
185.00	1355.95
186.00	1348.15
187.00	1359.85
188.00	1393.40
189.00	1444.11
190.00	1461.27
191.00	1458.15
192.00	1423.05
193.00	1415.24
194.00	1430.85
195.00	1465.18
196.00	1485.46
197.00	1494.04
198.00	1476.10
199.00	1488.58
200.00	1467.52
201.00	1510.43
202.00	1479.22
203.00	1492.48
204.00	1487.80
205.00	1543.97
206.00	1564.26
207.00	1590.78
208.00	1599.37
209.00	1621.21
210.00	1614.19
211.00	1612.63
212.00	1615.75
213.00	1619.65
214.00	1615.75
215.00	1632.91
216.00	1659.44
217.00	1663.34
218.00	1689.87
219.00	1675.04
220.00	1703.13
221.00	1700.01
222.00	1722.63
223.00	1728.88
224.00	1745.26
225.00	1771.01
226.00	1786.61
227.00	1792.85
228.00	1764.76
229.00	1771.01
230.00	1768.66
231.00	1786.61
232.00	1750.72
233.00	1747.60
234.00	1757.74
235.00	1800.65
236.00	1813.92
237.00	1814.70
238.00	1812.35
239.00	1839.66
240.00	1866.97
241.00	1898.17
242.00	1912.22
243.00	1932.50
244.00	1907.54
245.00	1913.78
246.00	1877.89
247.00	1912.22
248.00	1890.37
249.00	1940.30
250.00	1945.77
251.00	1989.46
252.00	2001.94
253.00	2037.05
254.00	2065.91
255.00	2106.48
256.00	2153.29
257.00	2152.51
258.00	2175.92
259.00	2140.03
260.00	2132.23
261.00	2122.87
262.00	2157.19
263.00	2204.78
264.00	2185.28
265.00	2175.92
266.00	2152.51
267.00	2218.83
268.00	2285.92
269.00	2317.13
270.00	2304.65
271.00	2259.40
272.00	2289.82
273.00	2297.63
274.00	2367.84
275.00	2386.57
276.00	2416.99
277.00	2361.60
278.00	2328.83
279.00	2353.80
280.00	2413.87
281.00	2476.29
282.00	2501.25
283.00	2459.90
284.00	2440.40
285.00	2433.38
286.00	2480.19
287.00	2487.21
288.00	2470.05
289.00	2492.67
290.00	2502.03
291.00	2508.27
292.00	2505.15
293.00	2532.46
294.00	2534.80
295.00	2554.30
296.00	2515.30
297.00	2531.68
298.00	2510.61
299.00	2531.68
300.00	2566.79
301.00	2584.73
302.00	2620.62
303.00	2636.22
304.00	2667.43
305.00	2699.42
306.00	2698.64
307.00	2693.96
308.00	2660.41
309.00	2654.95
310.00	2675.23
311.00	2708.00
312.00	2702.54
313.00	2699.42
314.00	2668.21
315.00	2667.43
316.00	2672.89
317.00	2699.42
318.00	2685.37
319.00	2718.14
320.00	2772.75
321.00	2793.82
322.00	2743.89
323.00	2686.94
324.00	2729.84
325.00	2766.51
326.00	2835.17
327.00	2870.28
328.00	2885.88
329.00	2923.33
330.00	2942.05
331.00	2974.04
332.00	2912.41
333.00	2882.76
334.00	2896.02
335.00	2937.37
336.00	3005.25
337.00	3055.96
338.00	3081.71
339.00	3023.97
340.00	3006.03
341.00	3040.36
342.00	3070.78
343.00	3118.37
344.00	3125.40
345.00	3139.44
346.00	3089.51
347.00	3089.51
348.00	3093.41
349.00	3177.67
350.00	3197.17
351.00	3272.07
352.00	3187.03
353.00	3224.48
354.00	3191.71
355.00	3238.52
356.00	3221.36
357.00	3254.90
358.00	3287.67
359.00	3258.03
360.00	3272.85
361.00	3332.92
362.00	3410.16
363.00	3407.04
364.00	3378.17
365.00	3368.03
366.00	3375.83
367.00	3381.29
368.00	3433.57
369.00	3460.09
370.00	3516.26
371.00	3496.76
372.00	3519.39
373.00	3481.16
374.00	3510.80
375.00	3526.41
376.00	3609.89
377.00	3614.57
378.00	3652.02
379.00	3644.99
380.00	3642.65
381.00	3665.28
382.00	3694.15
383.00	3733.15
384.00	3777.62
385.00	3775.28
386.00	3824.44
387.00	3826.00
388.00	3850.18
389.00	3888.41
390.00	3921.18
391.00	3981.25
392.00	3955.51
393.00	3973.45
394.00	3982.03
395.00	4048.35
396.00	4063.17
397.00	4095.94
398.00	4092.04
399.00	4178.64
400.00	4172.39
401.00	4226.23
402.00	4199.70
403.00	4279.28
404.00	4305.81
405.00	4323.75
406.00	4316.73
407.00	4311.27
408.00	4273.04
409.00	4245.73
410.00	4298.00
411.00	4351.06
412.00	4331.55
413.00	4352.62
414.00	4390.84
415.00	4487.59
416.00	4491.49
417.00	4428.29
418.00	4394.75
419.00	4375.24
420.00	4456.38
421.00	4450.14
422.00	4404.89
423.00	4378.36
424.00	4425.95
425.00	4488.37
426.00	4487.59
427.00	4451.70
428.00	4391.63
429.00	4440.78
430.00	4450.92
431.00	4465.74
432.00	4458.72
433.00	4472.76
434.00	4572.63
435.00	4612.42
436.00	4709.94
437.00	4730.22
438.00	4745.05
439.00	4674.83
440.00	4673.27
441.00	4686.53
442.00	4733.34
443.00	4731.78
444.00	4761.43
445.00	4784.06
446.00	4789.52
447.00	4845.69
448.00	4867.53
449.00	4883.14
450.00	4862.85
451.00	4870.65
452.00	4967.40
453.00	4983.00
454.00	4990.80
455.00	4962.72
456.00	5010.31
457.00	5096.13
458.00	5128.89
459.00	5074.28
460.00	5062.58
461.00	5065.70
462.00	5142.16
463.00	5136.70
464.00	5184.29
465.00	5193.65
466.00	5221.74
467.00	5303.65
468.00	5316.92
469.00	5386.35
470.00	5340.32
471.00	5372.31
472.00	5388.69
473.00	5387.13
474.00	5441.75
475.00	5447.99
476.00	5479.97
477.00	5494.80
478.00	5539.27
479.00	5645.37
480.00	5659.42
481.00	5697.64
482.00	5666.44
483.00	5618.07
484.00	5625.09
485.00	5618.85
486.00	5736.65
487.00	5741.33
488.00	5809.21
489.00	5840.42
490.00	5884.89
491.00	5967.59
492.00	5963.68
493.00	5993.33
494.00	5950.42
495.00	5936.38
496.00	5926.24
497.00	6008.94
498.00	6040.92
499.00	6101.78
500.00	5998.01
501.00	6012.06
502.00	5983.97
503.00	6036.24
504.00	6054.19
505.00	6109.58
506.00	6175.89
507.00	6285.90
508.00	6264.83
509.00	6200.08
510.00	6179.01
511.00	6255.47
512.00	6338.17
513.00	6384.20
514.00	6427.89
515.00	6463.00
516.00	6463.78
517.00	6507.47
518.00	6548.82
519.00	6540.24
520.00	6569.10
521.00	6604.21
522.00	6635.42
523.00	6596.41
524.00	6600.31
525.00	6665.07
526.00	6715.78
527.00	6759.47
528.00	6728.26
529.00	6656.48
530.00	6625.28
531.00	6678.33
532.00	6771.95
533.00	6860.89
534.00	6871.03
535.00	6899.12
536.00	6861.67
537.00	6839.05
538.00	6878.05
539.00	6942.03
540.00	7011.46
541.00	6991.18
542.00	7053.59
543.00	7174.52
544.00	7292.33
545.00	7231.48
546.00	7183.10
547.00	7175.30
548.00	7272.82
549.00	7360.20
550.00	7387.51
551.00	7364.11
552.00	7360.98
553.00	7311.83
554.00	7338.36
555.00	7319.64
556.00	7346.16
557.00	7373.47
558.00	7383.61
559.00	7479.57
560.00	7601.28
561.00	7686.32
562.00	7694.90
563.00	7613.76
564.00	7698.02
565.00	7769.02
566.00	7928.17
567.00	7921.93
568.00	7964.06
569.00	7959.38
570.00	8026.48
571.00	8173.15
572.00	8191.09
573.00	8123.22
574.00	8058.46
575.00	8120.10
576.00	8341.67
577.00	8372.10
578.00	8419.69
579.00	8334.65
580.00	8432.17
581.00	8443.09
582.00	8570.26
583.00	8649.84
584.00	8809.78
585.00	8865.95
586.00	8947.09
587.00	8906.52
588.00	8968.15
589.00	8951.77
590.00	9096.88
591.00	9135.89
592.00	9227.95
593.00	9366.82
594.00	9425.34
595.00	9559.53
596.00	9527.54
597.00	9633.64
598.00	9668.75
599.00	9731.17
600.00	9858.34
601.00	9955.86
602.00	10079.91
603.00	10204.74
604.00	10257.01
605.00	10415.38
606.00	10370.91
607.00	10433.33
608.00	10445.03
609.00	10553.48
610.00	10582.34
611.00	10580.78
612.00	10610.43
613.00	10717.31
614.00	10771.93
615.00	10842.92
616.00	11000.52
617.00	11169.04
618.00	11316.49
619.00	11358.62
620.00	11357.84
621.00	11412.45
622.00	11504.51
623.00	11663.67
624.00	11776.80
625.00	11830.63
626.00	11918.79
627.00	11957.80
628.00	12074.04
629.00	12208.23
630.00	12377.53
631.00	12422.78
632.00	12351.79
633.00	12509.38
634.00	12725.49
635.00	12965.79
636.00	13021.96
637.00	13166.29
638.00	13253.67
639.00	13301.26
640.00	13264.60
641.00	13286.44
642.00	13351.20
643.00	13473.68
644.00	13631.28
645.00	13743.63
646.00	13691.35
647.00	13736.60
648.00	13855.97
649.00	14139.18
650.00	14292.09
651.00	14434.08
652.00	14463.73
653.00	14565.93
654.00	14651.75
655.00	14670.48
656.00	14661.90
657.00	14669.70
658.00	14824.17
659.00	15049.64
660.00	15231.43
661.00	15356.25
662.00	15508.39
663.00	15657.40
664.00	15784.57
665.00	15723.72
666.00	15835.28
667.00	16003.02
668.00	16223.81
669.00	16306.51
670.00	16355.66
671.00	16307.29
672.00	16401.69
673.00	16362.69
674.00	16648.23
675.00	16661.49
676.00	16780.86
677.00	16659.15
678.00	16773.06
679.00	16981.37
680.00	17338.69
681.00	17482.24
682.00	17604.73
683.00	17565.72
684.00	17691.33
685.00	17790.41
686.00	17939.43
687.00	17994.82
688.00	18045.53
689.00	18203.13
690.00	18368.52
691.00	18453.56
692.00	18526.90
693.00	18535.48
694.00	18744.57
695.00	18856.92
696.00	19013.73
697.00	19101.11
698.00	19240.76
699.00	19265.73
700.00	19334.39
701.00	19388.22
702.00	19489.64
703.00	19596.53
704.00	19679.22
705.00	19793.13
706.00	19849.30
707.00	19919.52
708.00	20147.33
709.00	20263.58
710.00	20497.63
711.00	20606.86
712.00	20844.03
713.00	20868.22
714.00	20793.32
715.00	20737.93
716.00	20866.66
717.00	20996.17
718.00	21128.02
719.00	21231.78
720.00	21311.36
721.00	21448.67
722.00	21438.53
723.00	21566.48
724.00	21572.72
725.00	21676.48
726.00	21643.71
727.00	21805.99
728.00	21875.43
729.00	22090.76
730.00	22055.65
731.00	22038.48
732.00	21937.06
733.00	21846.56
734.00	21941.74
735.00	22153.17
736.00	22333.39
737.00	22463.68
738.00	22545.60
739.00	22734.40
740.00	22769.51
741.00	22916.19
742.00	22916.19
743.00	23058.96
744.00	23074.56
745.00	23286.77
746.00	23271.17
747.00	23374.15
748.00	23427.98
749.00	23476.35
750.00	23570.76
751.00	23465.43
752.00	23614.45
753.00	23579.34
754.00	23775.16
755.00	23824.31
756.00	23980.35
757.00	24022.48
758.00	24124.68
759.00	24181.63
760.00	24311.14
761.00	24314.27
762.00	24358.74
763.00	24428.95
764.00	24722.30
765.00	24856.49
766.00	25085.08
767.00	25165.44
768.00	25266.08
769.00	25406.52
770.00	25573.47
771.00	25754.47
772.00	25721.71
773.00	25713.91
774.00	25734.19
775.00	25866.82
776.00	25930.80
777.00	25980.73
778.00	25964.34
779.00	25960.44
780.00	25923.77
781.00	26075.91
782.00	26231.94
783.00	26604.87
784.00	26714.09
785.00	26835.80
786.00	26920.84
787.00	26893.54
788.00	27069.08
789.00	26977.01
790.00	27120.57
791.00	27097.94
792.00	27274.26
793.00	27305.47
794.00	27277.38
795.00	27195.46
796.00	27350.72
797.00	27422.50
798.00	27575.41
799.00	27571.51
800.00	27701.02
801.00	27775.14
802.00	27850.81
803.00	27997.49
804.00	28176.93
805.00	28313.46
806.00	28424.25
807.00	28476.52
808.00	28505.38
809.00	28553.76
810.00	28812.77
811.00	28958.67
812.00	29078.82
813.00	29030.44
814.00	29157.61
815.00	29192.72
816.00	29427.56
817.00	29614.02
818.00	29703.74
819.00	29630.40
820.00	29628.06
821.00	29858.21
822.00	29993.97
823.00	30026.73
824.00	30055.60
825.00	29908.15
826.00	29834.81
827.00	29837.93
828.00	30031.41
829.00	30223.34
830.00	30276.39
831.00	30360.65
832.00	30504.98
833.00	30512.00
834.00	30632.15
835.00	30732.01
836.00	30941.88
837.00	31068.27
838.00	31115.86
839.00	31250.83
840.00	31168.91
841.00	31275.80
842.00	31272.68
843.00	31495.03
844.00	31690.85
845.00	31878.88
846.00	31957.67
847.00	31884.34
848.00	31856.25
849.00	31984.20
850.00	32048.96
851.00	32165.20
852.00	32148.82
853.00	32027.89
854.00	32014.63
855.00	31943.63
856.00	32215.13
857.00	32361.81
858.00	32587.28
859.00	32651.25
860.00	32594.30
861.00	32546.71
862.00	32669.98
863.00	32749.56
864.00	32768.28
865.00	32948.50
866.00	33222.34
867.00	33532.86
868.00	33372.14
869.00	33474.34
870.00	33638.96
871.00	34025.15
872.00	33961.95
873.00	34110.97
874.00	34087.56
875.00	34192.89
876.00	34118.77
877.00	34051.67
878.00	34174.94
879.00	34107.85
880.00	34182.74
881.00	34178.84
882.00	34150.76
883.00	34157.78
884.00	34152.32
885.00	34203.81
886.00	34210.83
887.00	34182.74
888.00	34331.76
889.00	34553.33
890.00	34751.49
891.00	34815.47
892.00	34948.88
893.00	34972.28
894.00	35142.36
895.00	35168.89
896.00	35242.23
897.00	35166.55
898.00	34952.78
899.00	35110.38
900.00	35244.57
901.00	35658.06
902.00	35716.58
903.00	36026.31
904.00	36170.64
905.00	36347.74
906.00	36219.79
907.00	36034.89
908.00	36098.86
909.00	36547.47
910.00	36524.06
911.00	36459.30
912.00	35950.63
913.00	35902.26
914.00	35800.83
915.00	35957.65
916.00	36154.26
917.00	36226.81
918.00	36485.83
919.00	36503.78
920.00	36531.86
921.00	36497.53
922.00	36885.28
923.00	37046.78
924.00	37078.77
925.00	36797.12
926.00	36642.65
927.00	36514.70
928.00	36703.50
929.00	37099.05
930.00	37334.67
931.00	37474.32
932.00	37640.50
933.00	37620.99
934.00	37434.53
935.00	37290.20
936.00	37439.99
937.00	37510.21
938.00	37486.02
939.00	37513.33
940.00	37677.94
941.00	37608.51
942.00	37742.70
943.00	37754.40
944.00	37926.82
945.00	37684.19
946.00	37852.70
947.00	37892.49
948.00	38263.08
949.00	38225.63
950.00	38248.25
951.00	38137.47
952.00	38115.62
953.00	38146.05
954.00	38192.86
955.00	38320.81
956.00	38586.07
957.00	38621.96
958.00	38998.79
959.00	39201.63
960.00	39589.38
961.00	39403.70
962.00	39323.34
963.00	39317.88
964.00	39523.07
965.00	39581.58
966.00	39686.12
967.00	39867.91
968.00	40074.65
969.00	39991.17
970.00	40066.07
971.00	40286.08
972.00	40538.86
973.00	40421.05
974.00	40254.87
975.00	40179.98
976.00	40283.74
977.00	40250.19
978.00	40152.67
979.00	39932.66
980.00	39965.43
981.00	40186.22
982.00	40257.99
983.00	40379.70
984.00	40463.96
985.00	40632.48
986.00	40570.07
987.00	40399.21
988.00	40513.11
989.00	40416.37
990.00	40556.80
991.00	40492.83
992.00	40761.21
993.00	40737.02
994.00	40900.08
995.00	41001.50
996.00	41381.45
997.00	41599.90
998.00	41671.68
999.00	41582.74
1000.00	41642.03
1001.00	41846.44
1002.00	41829.27
1003.00	41713.81
1004.00	41753.60
1005.00	41863.60
1006.00	42036.02
1007.00	42009.50
1008.00	42248.23
1009.00	42138.22
1010.00	42273.20
1011.00	42094.53
1012.00	42370.72
1013.00	42175.67
1014.00	42287.24
1015.00	42121.06
1016.00	42387.10
1017.00	42601.65
1018.00	42827.90
1019.00	42782.65
1020.00	42743.64
1021.00	42618.03
1022.00	42601.65
1023.00	42530.65
1024.00	42625.06
1025.00	42870.81
1026.00	43072.88
1027.00	43235.94
1028.00	43393.53
1029.00	43401.33
1030.00	43369.35
1031.00	43452.05
1032.00	43643.19
1033.00	43998.95
1034.00	44020.80
1035.00	43942.00
1036.00	43757.88
1037.00	43501.98
1038.00	43574.53
1039.00	43612.76
1040.00	43887.39
1041.00	43934.98
1042.00	44079.31
1043.00	44172.93
1044.00	44358.61
1045.00	44493.58
1046.00	44441.31
1047.00	44195.56
1048.00	43946.68
1049.00	43888.95
1050.00	44171.37
1051.00	44579.40
1052.00	44950.77
1053.00	44990.56
1054.00	44887.57
1055.00	44797.07
1056.00	44797.85
1057.00	44889.13
1058.00	45036.59
1059.00	45072.48
1060.00	45176.24
1061.00	44964.03
1062.00	45042.05
1063.00	44914.10
1064.00	45080.28
1065.00	45208.23
1066.00	45470.37
1067.00	45645.13
1068.00	45494.55
1069.00	45318.23
1070.00	45134.11
1071.00	45270.64
1072.00	45584.27
1073.00	45858.90
1074.00	45936.91
1075.00	45925.99
1076.00	45885.42
1077.00	45881.52
1078.00	45841.73
1079.00	45756.69
1080.00	45783.22
1081.00	45822.23
1082.00	45924.43
1083.00	45986.85
1084.00	45896.34
1085.00	45869.04
1086.00	45879.96
1087.00	45996.99
1088.00	46040.68
1089.00	46162.39
1090.00	46220.12
1091.00	46332.46
1092.00	46296.58
1093.00	46272.39
1094.00	46449.49
1095.00	46689.01
1096.00	46818.52
1097.00	46817.74
1098.00	46771.71
1099.00	46667.94
1100.00	46483.82
1101.00	46488.50
1102.00	46877.81
1103.00	47184.42
1104.00	47331.09
1105.00	47265.56
1106.00	47256.20
1107.00	47249.95
1108.00	47276.48
1109.00	47525.36
1110.00	47554.22
1111.00	47482.45
1112.00	47288.96
1113.00	47125.91
1114.00	47150.87
1115.00	47132.15
1116.00	47260.10
1117.00	47340.46
1118.00	47354.50
1119.00	47404.43
1120.00	47320.17
1121.00	47306.13
1122.00	47480.89
1123.00	47429.40
1124.00	47375.56
1125.00	47074.41
1126.00	47256.20
1127.00	47488.69
1128.00	47594.79
1129.00	47511.31
1130.00	47527.70
1131.00	47673.59
1132.00	47641.60
1133.00	47494.93
1134.00	47471.53
1135.00	47649.41
1136.00	47708.70
1137.00	47675.93
1138.00	47676.71
1139.00	47735.23
1140.00	47862.40
1141.00	47960.70
1142.00	47995.81
1143.00	47984.88
1144.00	47957.58
1145.00	47910.77
1146.00	48016.09
1147.00	48027.79
1148.00	48205.67
1149.00	48146.38
1150.00	48161.20
1151.00	48030.13
1152.00	48029.35
1153.00	48062.12
1154.00	48123.75
1155.00	48105.03
1156.00	48149.50
1157.00	48137.02
1158.00	48159.64
1159.00	48250.92
1160.00	48467.03
1161.00	48657.40
1162.00	48697.19
1163.00	48738.54
1164.00	48768.96
1165.00	48809.53
1166.00	48744.78
1167.00	48587.96
1168.00	48489.66
1169.00	48385.11
1170.00	48307.10
1171.00	48225.96
1172.00	48165.10
1173.00	48038.72
1174.00	48106.59
1175.00	48349.23
1176.00	48605.12
1177.00	48448.31
1178.00	48268.09
1179.00	48236.88
1180.00	48515.40
1181.00	48739.32
1182.00	49065.43
1183.00	49098.20
1184.00	48989.75
1185.00	48882.09
1186.00	48816.55
1187.00	48948.40
1188.00	48893.01
1189.00	48921.88
1190.00	48727.61
1191.00	48925.78
1192.00	48780.67
1193.00	48811.09
1194.00	48584.84
1195.00	48775.20
1196.00	48959.33
1197.00	49045.15
1198.00	49009.26
1199.00	48978.05
1200.00	48982.73
1201.00	49018.62
1202.00	48873.51
1203.00	48960.11
1204.00	49020.18
1205.00	49327.57
1206.00	49432.89
1207.00	49531.20
1208.00	49462.54
1209.00	49257.35
1210.00	49116.92
1211.00	48909.39
1212.00	48942.94
1213.00	49057.63
1214.00	49037.34
1215.00	48975.71
1216.00	48857.12
1217.00	49017.84
1218.00	49138.77
1219.00	49210.54
1220.00	49237.85
1221.00	49066.21
1222.00	49050.61
1223.00	49092.74
1224.00	49183.24
1225.00	49087.28
1226.00	49102.10
1227.00	49163.73
1228.00	49162.95
1229.00	49135.65
1230.00	49196.50
1231.00	49478.92
1232.00	49623.26
1233.00	49725.46
1234.00	49569.43
1235.00	49606.09
1236.00	49445.38
1237.00	49570.21
1238.00	49539.00
1239.00	49817.52
1240.00	49927.53
1241.00	49976.68
1242.00	49978.24
1243.00	50007.11
1244.00	50028.17
1245.00	50101.51
1246.00	50124.13
1247.00	50297.33
1248.00	50351.16
1249.00	50404.22
1250.00	50213.85
1251.00	49979.80
1252.00	50029.73
1253.00	50050.80
1254.00	50142.08
1255.00	49901.00
1256.00	49936.11
1257.00	49937.67
1258.00	50006.33
1259.00	49885.40
1260.00	49883.84
1261.00	49936.11
1262.00	50264.56
1263.00	50621.11
1264.00	50760.76
1265.00	50774.80
1266.00	50660.12
1267.00	50747.50
1268.00	50806.01
1269.00	50861.40
1270.00	50737.35
1271.00	50704.59
1272.00	50763.10
1273.00	50831.75
1274.00	50777.14
1275.00	50611.74
1276.00	50606.28
1277.00	50634.37
1278.00	50591.46
1279.00	50586.00
1280.00	50664.80
1281.00	50916.79
1282.00	51089.21
1283.00	51074.39
1284.00	51018.22
1285.00	51194.54
1286.00	51277.24
1287.00	51269.43
1288.00	51025.24
1289.00	51135.24
1290.00	51238.23
1291.00	51350.57
1292.00	51414.55
1293.00	51385.68
1294.00	51340.43
1295.00	51107.16
1296.00	51159.43
1297.00	51129.78
1298.00	51236.67
1299.00	51106.38
1300.00	51093.89
1301.00	51098.58
1302.00	51148.51
1303.00	51277.24
1304.00	51238.23
1305.00	51381.78
1306.00	51420.01
1307.00	51412.21
1308.00	51341.21
1309.00	51193.76
1310.00	51306.88
1311.00	51268.65
1312.00	51531.57
1313.00	51577.61
1314.00	51672.01
1315.00	51636.12
1316.00	51817.12
1317.00	51915.42
1318.00	51891.24
1319.00	51714.92
1320.00	51695.41
1321.00	51725.06
1322.00	51877.97
1323.00	51870.95
1324.00	51931.03
1325.00	51811.66
1326.00	51892.02
1327.00	51988.76
1328.00	52172.88
1329.00	52345.30
1330.00	52437.36
1331.00	52588.72
1332.00	52446.72
1333.00	52293.81
1334.00	51915.42
1335.00	51845.21
1336.00	51823.36
1337.00	51810.88
1338.00	51689.95
1339.00	51666.55
1340.00	51812.44
1341.00	51920.88
1342.00	51851.45
1343.00	51947.41
1344.00	51998.90
1345.00	52062.10
1346.00	52067.56
1347.00	52193.95
1348.00	52239.20
1349.00	52165.86
1350.00	51937.27
1351.00	51910.74
1352.00	51775.77
1353.00	51798.40
1354.00	51771.87
1355.00	51921.66
1356.00	52033.23
1357.00	52192.39
1358.00	52202.53
1359.00	52249.34
1360.00	52237.64
1361.00	52221.25
1362.00	52165.86
1363.00	52126.07
1364.00	52049.61
1365.00	52170.54
1366.00	52128.41
1367.00	52266.50
1368.00	52271.96
1369.00	52474.03
1370.00	52383.53
1371.00	52278.99
1372.00	52151.04
1373.00	52335.16
1374.00	52463.11
1375.00	52501.34
1376.00	52407.72
1377.00	52242.32
1378.00	52216.57
1379.00	52218.91
1380.00	52289.91
1381.00	52317.21
1382.00	52296.93
1383.00	52236.86
1384.00	52013.73
1385.00	51839.75
1386.00	51779.67
1387.00	51822.58
1388.00	51842.87
1389.00	51696.19
1390.00	51743.78
1391.00	51734.42
1392.00	51913.08
1393.00	51963.01
1394.00	52072.24
1395.00	52101.11
1396.00	52159.62
1397.00	52122.95
1398.00	52047.27
1399.00	51904.50
1400.00	51975.50
1401.00	51968.47
1402.00	51919.32
1403.00	51752.37
1404.00	51927.13
1405.00	51995.78
1406.00	52203.31
1407.00	52172.88
1408.00	52278.99
1409.00	52296.15
1410.00	52341.40
1411.00	52424.10
1412.00	52519.28
1413.00	52553.61
1414.00	52686.24
1415.00	52717.45
1416.00	52634.75
1417.00	52412.40
1418.00	52257.92
1419.00	52262.60
1420.00	52382.75
1421.00	52339.06
1422.00	52395.23
1423.00	52336.72
1424.00	52295.37
1425.00	52186.92
1426.00	52019.97
1427.00	52131.53
1428.00	52058.20
1429.00	52082.38
1430.00	52032.45
1431.00	52255.58
1432.00	52250.12
1433.00	52139.33
1434.00	51938.05
1435.00	51804.64
1436.00	51653.28
1437.00	51554.20
1438.00	51681.37
1439.00	51701.65
1440.00	51728.96
1441.00	51739.88
1442.00	51846.77
1443.00	51814.78
1444.00	51704.77
1445.00	51711.80
1446.00	51770.31
1447.00	51803.86
1448.00	51760.95
1449.00	51761.73
1450.00	51901.38
1451.00	52076.14
1452.00	52200.97
1453.00	52199.41
1454.00	52083.16
1455.00	51929.47
1456.00	51824.92
1457.00	51904.50
1458.00	52006.70
1459.00	52002.80
1460.00	51988.76
1461.00	51991.10
1462.00	51952.09
1463.00	51842.09
1464.00	51700.87
1465.00	51674.35
1466.00	51672.01
1467.00	51650.16
1468.00	51706.33
1469.00	51759.39
1470.00	51901.38
1471.00	51838.18
1472.00	51764.07
1473.00	51679.81
1474.00	51743.00
1475.00	51734.42
1476.00	51762.51
1477.00	51799.18
1478.00	51904.50
1479.00	51940.39
1480.00	51764.07
1481.00	51631.44
1482.00	51526.89
1483.00	51541.72
1484.00	51547.96
1485.00	51448.10
1486.00	51365.40
1487.00	51326.39
1488.00	51487.88
1489.00	51487.88
1490.00	51427.03
1491.00	51351.35
1492.00	51356.81
1493.00	51469.94
1494.00	51533.14
1495.00	51548.74
1496.00	51461.36
1497.00	51425.47
1498.00	51462.14
1499.00	51521.43
1500.00	51630.66
1501.00	51796.06
1502.00	51880.31
1503.00	51760.95
1504.00	51603.35
1505.00	51525.33
1506.00	51413.77
1507.00	51315.47
1508.00	51276.46
1509.00	51285.82
1510.00	51410.65
1511.00	51505.83
1512.00	51481.64
1513.00	51457.46
1514.00	51508.95
1515.00	51576.04
1516.00	51325.61
1517.00	51031.48
1518.00	50800.55
1519.00	51032.26
1520.00	51214.82
1521.00	51334.97
1522.00	51168.01
1523.00	51057.23
1524.00	51123.54
1525.00	51142.27
1526.00	51042.40
1527.00	50922.26
1528.00	50912.11
1529.00	50875.44
1530.00	50940.20
1531.00	51018.22
1532.00	51153.97
1533.00	51122.76
1534.00	50998.71
1535.00	50965.95
1536.00	51129.78
1537.00	51331.85
1538.00	51431.71
1539.00	51290.50
1540.00	51356.81
1541.00	51234.33
1542.00	51309.22
1543.00	51249.15
1544.00	51306.88
1545.00	51143.83
1546.00	51005.73
1547.00	50798.99
1548.00	50864.52
1549.00	50910.55
1550.00	50990.91
1551.00	50928.50
1552.00	50905.09
1553.00	50944.10
1554.00	51040.06
1555.00	51049.42
1556.00	51143.05
1557.00	50997.93
1558.00	51088.43
1559.00	51010.42
1560.00	51003.39
1561.00	50715.51
1562.00	50564.15
1563.00	50413.58
1564.00	50413.58
1565.00	50440.10
1566.00	50455.71
1567.00	50491.60
1568.00	50240.38
1569.00	50184.99
1570.00	50035.19
1571.00	50088.24
1572.00	50054.70
1573.00	49995.40
1574.00	50089.02
1575.00	50225.56
1576.00	50231.02
1577.00	50141.30
1578.00	50066.40
1579.00	50149.10
1580.00	50147.54
1581.00	50215.41
1582.00	50350.38
1583.00	50480.67
1584.00	50502.52
1585.00	50480.67
1586.00	50388.61
1587.00	50130.37
1588.00	50006.33
1589.00	50071.08
1590.00	50166.26
1591.00	50107.75
1592.00	49961.86
1593.00	49997.74
1594.00	50062.50
1595.00	50104.63
1596.00	50152.22
1597.00	50089.80
1598.00	50102.29
1599.00	50005.55
1600.00	49985.26
1601.00	49946.25
1602.00	49883.84
1603.00	49946.25
1604.00	50089.02
1605.00	50250.52
1606.00	50193.57
1607.00	49782.41
1608.00	49543.68
1609.00	49519.49
1610.00	49648.22
1611.00	49762.13
1612.00	49777.73
1613.00	49912.70
1614.00	49739.50
1615.00	49769.93
1616.00	49662.27
1617.00	49954.83
1618.00	50099.17
1619.00	50193.57
1620.00	50202.15
1621.00	50052.36
1622.00	50103.85
1623.00	50050.02
1624.00	50138.96
1625.00	50032.85
1626.00	49910.36
1627.00	49766.81
1628.00	49922.07
1629.00	49927.53
1630.00	49809.72
1631.00	49687.23
1632.00	49766.03
1633.00	49947.03
1634.00	50036.75
1635.00	50034.41
1636.00	49967.32
1637.00	49956.39
1638.00	49865.89
1639.00	49887.74
1640.00	49677.87
1641.00	49546.02
1642.00	49402.47
1643.00	49438.36
1644.00	49297.92
1645.00	49188.70
1646.00	49041.24
1647.00	49035.78
1648.00	49137.21
1649.00	49280.76
1650.00	49432.89
1651.00	49251.11
1652.00	49258.13
1653.00	49332.25
1654.00	49436.02
1655.00	49291.68
1656.00	49066.21
1657.00	48999.12
1658.00	49027.98
1659.00	49084.15
1660.00	49099.76
1661.00	48875.07
1662.00	48775.98
1663.00	48663.64
1664.00	49050.61
1665.00	49253.45
1666.00	49432.89
1667.00	49300.26
1668.00	49205.08
1669.00	49149.69
1670.00	48990.53
1671.00	49034.22
1672.00	49024.86
1673.00	49138.77
1674.00	49124.72
1675.00	49166.85
1676.00	49251.89
1677.00	49237.07
1678.00	49105.22
1679.00	48921.10
1680.00	48807.97
1681.00	48602.00
1682.00	48442.07
1683.00	48335.18
1684.00	48383.55
1685.00	48544.27
1686.00	48614.49
1687.00	48754.14
1688.00	48707.33
1689.00	48627.75
1690.00	48546.61
1691.00	48312.56
1692.00	48292.27
1693.00	48031.69
1694.00	47896.72
1695.00	47813.24
1696.00	47831.19
1697.00	48011.41
1698.00	48070.70
1699.00	48353.13
1700.00	48581.72
1701.00	48749.46
1702.00	48840.74
1703.00	48779.88
1704.00	48775.98
1705.00	48636.33
1706.00	48593.42
1707.00	48385.11
1708.00	48380.43
1709.00	48333.62
1710.00	48298.51
1711.00	48063.68
1712.00	47629.90
1713.00	47381.02
1714.00	47255.42
1715.00	47387.27
1716.00	47391.95
1717.00	47501.95
1718.00	47582.31
1719.00	47516.78
1720.00	47388.05
1721.00	47150.87
1722.00	47172.72
1723.00	47137.61
1724.00	47323.29
1725.00	47396.63
1726.00	47177.40
1727.00	46974.55
1728.00	46819.30
1729.00	46923.84
1730.00	46965.19
1731.00	46831.00
1732.00	46571.98
1733.00	46206.86
1734.00	45989.19
1735.00	45937.69
1736.00	46071.10
1737.00	46085.15
1738.00	46168.63
1739.00	46068.76
1740.00	45898.69
1741.00	45774.64
1742.00	45586.61
1743.00	45578.81
1744.00	45310.43
1745.00	45145.03
1746.00	45190.28
1747.00	45230.85
1748.00	45113.83
1749.00	44837.64
1750.00	44764.31
1751.00	44763.53
1752.00	44557.56
1753.00	44406.20
1754.00	44130.80
1755.00	44127.68
1756.00	44003.63
1757.00	44076.97
1758.00	44032.50
1759.00	43807.81
1760.00	43686.88
1761.00	43673.62
1762.00	43658.01
1763.00	43581.56
1764.00	43394.31
1765.00	43278.85
1766.00	43203.95
1767.00	43072.88
1768.00	43128.27
1769.00	43101.75
1770.00	43328.78
1771.00	43509.00
1772.00	43630.71
1773.00	43625.25
1774.00	43446.58
1775.00	43388.85
1776.00	43209.41
1777.00	43082.24
1778.00	42951.17
1779.00	42858.33
1780.00	42932.45
1781.00	42845.07
1782.00	42726.48
1783.00	42415.19
1784.00	42232.63
1785.00	42245.11
1786.00	42091.41
1787.00	41979.07
1788.00	41546.07
1789.00	41464.93
1790.00	41234.78
1791.00	41147.40
1792.00	40892.28
1793.00	40847.03
1794.00	40680.07
1795.00	40637.94
1796.00	40294.66
1797.00	40279.84
1798.00	40144.09
1799.00	40261.12
1800.00	40040.32
1801.00	39854.64
1802.00	39587.82
1803.00	39319.44
1804.00	39152.48
1805.00	38884.88
1806.00	38883.32
1807.00	38908.29
1808.00	38909.07
1809.00	38775.66
1810.00	38683.59
1811.00	38678.91
1812.00	38536.14
1813.00	38370.74
1814.00	38177.26
1815.00	38281.80
1816.00	38050.87
1817.00	37929.16
1818.00	37786.39
1819.00	37745.04
1820.00	37506.30
1821.00	37196.57
1822.00	36993.73
1823.00	37067.06
1824.00	36959.40
1825.00	36917.27
1826.00	36610.66
1827.00	36652.79
1828.00	36492.07
1829.00	36478.03
1830.00	35952.19
1831.00	35944.39
1832.00	35731.40
1833.00	35587.85
1834.00	35195.42
1835.00	35069.81
1836.00	34788.16
1837.00	34490.13
1838.00	34107.85
1839.00	34146.08
1840.00	34160.12
1841.00	33976.00
1842.00	33878.47
1843.00	33615.55
1844.00	33364.34
1845.00	33089.71
1846.00	32882.19
1847.00	32744.87
1848.00	32463.23
1849.00	32036.47
1850.00	31861.71
1851.00	31707.24
1852.00	31756.39
1853.00	31576.95
1854.00	31352.26
1855.00	31140.05
1856.00	30920.82
1857.00	30867.77
1858.00	30778.82
1859.00	30803.79
1860.00	30753.08
1861.00	30621.23
1862.00	30359.09
1863.00	30186.67
1864.00	29912.05
1865.00	29929.21
1866.00	29831.69
1867.00	29869.92
1868.00	29515.72
1869.00	29085.84
1870.00	28767.52
1871.00	28596.67
1872.00	28615.39
1873.00	28397.72
1874.00	28161.33
1875.00	27848.47
1876.00	27806.34
1877.00	27725.99
1878.00	27526.26
1879.00	27190.78
1880.00	26998.08
1881.00	26820.20
1882.00	26568.98
1883.00	26317.76
1884.00	26130.52
1885.00	26024.42
1886.00	25923.77
1887.00	25764.62
1888.00	25699.08
1889.00	25493.12
1890.00	25517.30
1891.00	25353.46
1892.00	25197.43
1893.00	24815.14
1894.00	24623.22
1895.00	24496.05
1896.00	24467.96
1897.00	24321.29
1898.00	24075.53
1899.00	23836.02
1900.00	23682.32
1901.00	23690.12
1902.00	23772.04
1903.00	23658.92
1904.00	23482.59
1905.00	23263.36
1906.00	23105.77
1907.00	22947.39
1908.00	22725.04
1909.00	22629.86
1910.00	22490.99
1911.00	22294.38
1912.00	22015.08
1913.00	21914.44
1914.00	21779.46
1915.00	21683.50
1916.00	21514.20
1917.00	21430.73
1918.00	21270.01
1919.00	20982.90
1920.00	20762.11
1921.00	20514.02
1922.00	20446.92
1923.00	20255.78
1924.00	20150.45
1925.00	20054.49
1926.00	19973.35
1927.00	19829.80
1928.00	19580.92
1929.00	19444.39
1930.00	19488.08
1931.00	19545.81
1932.00	19475.60
1933.00	19217.36
1934.00	18986.43
1935.00	18860.82
1936.00	18725.85
1937.00	18597.12
1938.00	18418.46
1939.00	18378.67
1940.00	18236.67
1941.00	18051.77
1942.00	17869.99
1943.00	17771.69
1944.00	17706.93
1945.00	17560.26
1946.00	17353.51
1947.00	17164.71
1948.00	17110.10
1949.00	17099.95
1950.00	17011.79
1951.00	16941.58
1952.00	16852.64
1953.00	16671.64
1954.00	16547.59
1955.00	16338.50
1956.00	16292.47
1957.00	16029.55
1958.00	15929.69
1959.00	15869.61
1960.00	15822.80
1961.00	15681.59
1962.00	15495.91
1963.00	15401.51
1964.00	15381.22
1965.00	15361.72
1966.00	15303.20
1967.00	15231.43
1968.00	15167.45
1969.00	15091.77
1970.00	14902.97
1971.00	14747.72
1972.00	14589.34
1973.00	14595.58
1974.00	14491.82
1975.00	14401.32
1976.00	14271.81
1977.00	14125.13
1978.00	14026.83
1979.00	13848.95
1980.00	13839.59
1981.00	13731.92
1982.00	13726.46
1983.00	13635.96
1984.00	13582.91
1985.00	13446.38
1986.00	13329.35
1987.00	13242.75
1988.00	13148.35
1989.00	13068.77
1990.00	12920.54
1991.00	12813.65
1992.00	12690.38
1993.00	12610.81
1994.00	12652.94
1995.00	12599.88
1996.00	12514.84
1997.00	12322.92
1998.00	12361.15
1999.00	12294.05
2000.00	12283.13
2001.00	12084.19
2002.00	12067.80
2003.00	12059.22
2004.00	11974.96
2005.00	11924.25
2006.00	11754.95
2007.00	11748.71
2008.00	11634.80
2009.00	11469.41
2010.00	11284.50
2011.00	11248.61
2012.00	11326.63
2013.00	11325.07
2014.00	11188.54
2015.00	10983.35
2016.00	10937.32
2017.00	10900.65
2018.00	10927.18
2019.00	10885.83
2020.00	10861.65
2021.00	10801.57
2022.00	10697.81
2023.00	10656.46
2024.00	10630.71
2025.00	10571.42
2026.00	10459.07
2027.00	10350.63
2028.00	10272.61
2029.00	10281.19
2030.00	10287.43
2031.00	10180.55
2032.00	10040.90
2033.00	9944.94
2034.00	9997.21
2035.00	10022.95
2036.00	9954.30
2037.00	9859.90
2038.00	9718.68
2039.00	9632.08
2040.00	9581.37
2041.00	9542.36
2042.00	9469.81
2043.00	9426.12
2044.00	9424.56
2045.00	9451.08
2046.00	9407.39
2047.00	9273.20
>>>>>End Processed Spectral Data<<<<<
