SpectraSuite Data File
++++++++++++++++++++++++++++++++++++
Date: Thu Nov 16 14:04:19 EST 2017
User: cheriyan
Dark Spectrum Present: No
Reference Spectrum Present: No
Number of Sampled Component Spectra: 1
Spectrometers: USB2+H05261
Integration Time (usec): 100000 (USB2+H05261)
Spectra Averaged: 1 (USB2+H05261)
Boxcar Smoothing: 1 (USB2+H05261)
Correct for Electrical Dark: No (USB2+H05261)
Strobe/Lamp Enabled: No (USB2+H05261)
Correct for Detector Non-linearity: No (USB2+H05261)
Correct for Stray Light: No (USB2+H05261)
Number of Pixels in Processed Spectrum: 2048
>>>>>Begin Processed Spectral Data<<<<<
0.00	388.53
1.00	388.53
2.00	350.30
3.00	320.65
4.00	287.11
5.00	289.45
6.00	272.28
7.00	244.98
8.00	234.05
9.00	229.37
10.00	244.98
11.00	226.25
12.00	220.01
13.00	220.79
14.00	248.10
15.00	261.36
16.00	268.38
17.00	256.68
18.00	259.02
19.00	260.58
20.00	283.98
21.00	290.23
22.00	330.80
23.00	368.24
24.00	510.24
25.00	660.03
26.00	796.56
27.00	867.56
28.00	859.76
29.00	873.02
30.00	851.96
31.00	850.39
32.00	819.19
33.00	814.51
34.00	813.73
35.00	877.70
36.00	878.48
37.00	916.71
38.00	905.01
39.00	936.21
40.00	914.37
41.00	927.63
42.00	928.41
43.00	943.24
44.00	942.46
45.00	944.02
46.00	979.90
47.00	986.93
48.00	1012.67
49.00	1018.91
50.00	1010.33
51.00	974.44
52.00	976.78
53.00	986.15
54.00	1033.74
55.00	1007.21
56.00	1020.47
57.00	1003.31
58.00	1013.45
59.00	1027.50
60.00	1032.18
61.00	1024.37
62.00	968.98
63.00	983.02
64.00	1029.84
65.00	1057.92
66.00	1064.94
67.00	1056.36
68.00	1043.10
69.00	1059.48
70.00	1058.70
71.00	1117.22
72.00	1096.15
73.00	1093.03
74.00	1072.75
75.00	1055.58
76.00	1076.65
77.00	1081.33
78.00	1117.22
79.00	1096.15
80.00	1131.26
81.00	1121.12
82.00	1123.46
83.00	1129.70
84.00	1119.56
85.00	1156.22
86.00	1141.40
87.00	1178.07
88.00	1174.95
89.00	1183.53
90.00	1214.74
91.00	1241.26
92.00	1245.16
93.00	1228.78
94.00	1231.12
95.00	1245.95
96.00	1220.98
97.00	1207.72
98.00	1215.52
99.00	1263.89
100.00	1281.83
101.00	1273.25
102.00	1279.49
103.00	1291.20
104.00	1304.46
105.00	1284.95
106.00	1252.97
107.00	1245.16
108.00	1257.65
109.00	1283.39
110.00	1333.33
111.00	1355.17
112.00	1362.19
113.00	1343.47
114.00	1326.30
115.00	1326.30
116.00	1334.89
117.00	1388.72
118.00	1419.14
119.00	1401.98
120.00	1369.99
121.00	1344.25
122.00	1378.58
123.00	1395.74
124.00	1427.73
125.00	1409.78
126.00	1429.29
127.00	1436.31
128.00	1486.24
129.00	1491.70
130.00	1483.12
131.00	1496.38
132.00	1469.08
133.00	1496.38
134.00	1499.50
135.00	1544.75
136.00	1582.20
137.00	1597.81
138.00	1608.73
139.00	1593.90
140.00	1564.26
141.00	1559.58
142.00	1600.15
143.00	1657.10
144.00	1710.93
145.00	1689.87
146.00	1682.85
147.00	1663.34
148.00	1657.10
149.00	1694.55
150.00	1711.71
151.00	1747.60
152.00	1733.56
153.00	1737.46
154.00	1774.91
155.00	1779.59
156.00	1785.83
157.00	1772.57
158.00	1755.40
159.00	1776.47
160.00	1771.79
161.00	1810.79
162.00	1812.35
163.00	1842.78
164.00	1843.56
165.00	1860.73
166.00	1863.85
167.00	1843.56
168.00	1813.92
169.00	1803.77
170.00	1833.42
171.00	1873.21
172.00	1892.71
173.00	1923.92
174.00	1934.06
175.00	1963.71
176.00	1999.60
177.00	1993.36
178.00	2006.62
179.00	1994.92
180.00	2016.76
181.00	2030.02
182.00	2076.06
183.00	2133.01
184.00	2136.13
185.00	2078.40
186.00	2057.33
187.00	2057.33
188.00	2143.93
189.00	2126.77
190.00	2140.03
191.00	2113.50
192.00	2128.33
193.00	2177.48
194.00	2156.41
195.00	2212.59
196.00	2168.90
197.00	2203.22
198.00	2198.54
199.00	2271.10
200.00	2280.46
201.00	2265.64
202.00	2229.75
203.00	2221.95
204.00	2256.28
205.00	2269.54
206.00	2280.46
207.00	2317.91
208.00	2317.91
209.00	2388.13
210.00	2376.42
211.00	2392.03
212.00	2329.61
213.00	2346.78
214.00	2388.91
215.00	2412.31
216.00	2426.36
217.00	2454.44
218.00	2465.36
219.00	2519.98
220.00	2524.66
221.00	2561.33
222.00	2521.54
223.00	2536.36
224.00	2530.90
225.00	2550.40
226.00	2544.16
227.00	2626.86
228.00	2668.99
229.00	2700.20
230.00	2677.57
231.00	2682.25
232.00	2679.13
233.00	2698.64
234.00	2710.34
235.00	2719.70
236.00	2768.07
237.00	2801.62
238.00	2860.91
239.00	2850.77
240.00	2864.82
241.00	2859.35
242.00	2891.34
243.00	2873.40
244.00	2888.22
245.00	2889.00
246.00	2965.46
247.00	3025.53
248.00	3043.48
249.00	3041.14
250.00	3005.25
251.00	3055.18
252.00	3076.24
253.00	3088.73
254.00	3079.36
255.00	3105.89
256.00	3165.18
257.00	3238.52
258.00	3282.21
259.00	3350.09
260.00	3371.15
261.00	3364.91
262.00	3317.32
263.00	3293.13
264.00	3304.84
265.00	3343.85
266.00	3425.76
267.00	3495.20
268.00	3521.73
269.00	3449.95
270.00	3429.67
271.00	3439.03
272.00	3532.65
273.00	3541.23
274.00	3552.15
275.00	3563.86
276.00	3595.06
277.00	3635.63
278.00	3637.19
279.00	3664.50
280.00	3700.39
281.00	3734.71
282.00	3737.84
283.00	3662.16
284.00	3650.46
285.00	3669.18
286.00	3783.09
287.00	3814.29
288.00	3865.78
289.00	3897.77
290.00	3909.47
291.00	3860.32
292.00	3868.91
293.00	3876.71
294.00	3978.91
295.00	3961.75
296.00	4031.18
297.00	3986.71
298.00	4045.23
299.00	4022.60
300.00	4071.75
301.00	4026.50
302.00	4018.70
303.00	4027.28
304.00	4089.70
305.00	4142.75
306.00	4067.07
307.00	4051.47
308.00	4060.83
309.00	4110.76
310.00	4138.07
311.00	4152.11
312.00	4189.56
313.00	4169.27
314.00	4189.56
315.00	4213.74
316.00	4243.39
317.00	4262.12
318.00	4227.79
319.00	4256.65
320.00	4264.46
321.00	4347.94
322.00	4394.75
323.00	4448.58
324.00	4498.51
325.00	4544.54
326.00	4584.33
327.00	4625.68
328.00	4616.32
329.00	4578.09
330.00	4553.90
331.00	4562.48
332.00	4530.50
333.00	4535.96
334.00	4529.72
335.00	4610.08
336.00	4618.66
337.00	4613.20
338.00	4611.64
339.00	4652.98
340.00	4731.78
341.00	4809.80
342.00	4852.71
343.00	4885.48
344.00	4921.37
345.00	4950.23
346.00	4944.77
347.00	4862.85
348.00	4893.28
349.00	4971.30
350.00	5060.24
351.00	5090.67
352.00	5100.03
353.00	5094.57
354.00	5036.83
355.00	5027.47
356.00	5054.00
357.00	5109.39
358.00	5153.86
359.00	5226.42
360.00	5230.32
361.00	5248.26
362.00	5299.75
363.00	5379.33
364.00	5349.68
365.00	5272.45
366.00	5251.38
367.00	5262.30
368.00	5319.26
369.00	5356.71
370.00	5433.16
371.00	5479.97
372.00	5551.75
373.00	5594.66
374.00	5605.58
375.00	5662.54
376.00	5704.67
377.00	5713.25
378.00	5697.64
379.00	5722.61
380.00	5769.42
381.00	5857.58
382.00	5912.19
383.00	6021.42
384.00	5990.99
385.00	6005.03
386.00	5988.65
387.00	6052.63
388.00	6047.16
389.00	6062.77
390.00	6044.04
391.00	6149.37
392.00	6145.47
393.00	6250.01
394.00	6276.54
395.00	6423.21
396.00	6480.94
397.00	6577.69
398.00	6621.38
399.00	6673.65
400.00	6638.54
401.00	6679.89
402.00	6710.32
403.00	6798.48
404.00	6893.66
405.00	6936.57
406.00	6978.70
407.00	6881.18
408.00	6760.25
409.00	6645.56
410.00	6697.83
411.00	6835.92
412.00	6944.37
413.00	6959.19
414.00	6911.60
415.00	6926.43
416.00	6984.16
417.00	7028.63
418.00	7024.73
419.00	7028.63
420.00	7041.11
421.00	7087.14
422.00	7089.48
423.00	7127.71
424.00	7133.95
425.00	7208.85
426.00	7286.87
427.00	7326.66
428.00	7235.38
429.00	7186.22
430.00	7173.74
431.00	7212.75
432.00	7219.77
433.00	7244.74
434.00	7285.31
435.00	7343.04
436.00	7382.05
437.00	7391.41
438.00	7332.12
439.00	7373.47
440.00	7432.76
441.00	7559.15
442.00	7626.25
443.00	7712.07
444.00	7683.20
445.00	7667.60
446.00	7636.39
447.00	7668.38
448.00	7693.34
449.00	7683.20
450.00	7740.93
451.00	7814.27
452.00	7966.40
453.00	8009.31
454.00	7967.96
455.00	7914.13
456.00	7965.62
457.00	8056.90
458.00	8116.20
459.00	8112.30
460.00	8148.18
461.00	8106.84
462.00	8142.72
463.00	8152.87
464.00	8252.73
465.00	8318.26
466.00	8397.84
467.00	8463.38
468.00	8502.39
469.00	8524.23
470.00	8454.80
471.00	8515.65
472.00	8510.19
473.00	8683.39
474.00	8725.52
475.00	8794.95
476.00	8855.81
477.00	8950.21
478.00	9057.09
479.00	9053.97
480.00	8961.91
481.00	8862.83
482.00	8848.79
483.00	8936.95
484.00	9157.74
485.00	9230.29
486.00	9256.82
487.00	9213.91
488.00	9245.12
489.00	9291.93
490.00	9292.71
491.00	9373.85
492.00	9461.23
493.00	9508.82
494.00	9499.45
495.00	9418.32
496.00	9435.48
497.00	9540.02
498.00	9674.21
499.00	9796.70
500.00	9754.57
501.00	9792.02
502.00	9726.49
503.00	9795.92
504.00	9809.97
505.00	9908.27
506.00	9961.32
507.00	10055.72
508.00	10171.19
509.00	10214.88
510.00	10234.38
511.00	10227.36
512.00	10315.52
513.00	10345.95
514.00	10317.08
515.00	10305.38
516.00	10339.71
517.00	10407.58
518.00	10498.86
519.00	10501.20
520.00	10577.66
521.00	10526.95
522.00	10507.44
523.00	10526.17
524.00	10629.15
525.00	10743.06
526.00	10774.27
527.00	10803.91
528.00	10824.98
529.00	10851.50
530.00	10862.43
531.00	10898.31
532.00	10938.10
533.00	10954.49
534.00	10989.60
535.00	11077.76
536.00	11091.02
537.00	11073.07
538.00	11017.68
539.00	11085.56
540.00	11173.72
541.00	11152.65
542.00	11133.93
543.00	11186.98
544.00	11383.59
545.00	11473.31
546.00	11545.86
547.00	11607.50
548.00	11692.54
549.00	11737.01
550.00	11782.26
551.00	11804.10
552.00	11839.21
553.00	11804.10
554.00	11860.27
555.00	11932.05
556.00	11983.54
557.00	12072.48
558.00	12173.13
559.00	12352.57
560.00	12418.10
561.00	12407.18
562.00	12393.92
563.00	12461.79
564.00	12500.02
565.00	12681.80
566.00	12809.75
567.00	12949.40
568.00	12872.17
569.00	12780.89
570.00	12869.05
571.00	13040.68
572.00	13276.30
573.00	13348.86
574.00	13385.52
575.00	13542.34
576.00	13705.40
577.00	13798.24
578.00	13847.39
579.00	13862.99
580.00	14036.19
581.00	14034.63
582.00	14189.11
583.00	14164.92
584.00	14328.76
585.00	14427.84
586.00	14560.47
587.00	14479.33
588.00	14427.84
589.00	14544.09
590.00	14694.66
591.00	14838.22
592.00	15036.38
593.00	15312.56
594.00	15469.38
595.00	15480.30
596.00	15516.19
597.00	15751.81
598.00	15946.07
599.00	16074.80
600.00	16068.56
601.00	16079.48
602.00	16237.08
603.00	16458.65
604.00	16716.89
605.00	17022.72
606.00	17142.86
607.00	17256.77
608.00	17210.74
609.00	17309.04
610.00	17271.59
611.00	17298.90
612.00	17387.06
613.00	17621.11
614.00	17788.85
615.00	17909.00
616.00	18011.98
617.00	18100.14
618.00	18297.53
619.00	18455.90
620.00	18735.99
621.00	18866.28
622.00	19122.18
623.00	19443.61
624.00	19591.84
625.00	19610.57
626.00	19552.84
627.00	19638.66
628.00	19788.45
629.00	19980.37
630.00	20333.79
631.00	20432.10
632.00	20501.53
633.00	20644.31
634.00	20954.82
635.00	21130.36
636.00	21285.61
637.00	21552.43
638.00	21838.76
639.00	21882.45
640.00	21958.13
641.00	22033.02
642.00	22328.71
643.00	22442.62
644.00	22714.12
645.00	22828.81
646.00	22956.75
647.00	22974.70
648.00	23045.69
649.00	23360.89
650.00	23660.48
651.00	23970.99
652.00	24004.53
653.00	24041.98
654.00	24113.76
655.00	24342.35
656.00	24564.70
657.00	24784.71
658.00	24871.31
659.00	25136.57
660.00	25353.46
661.00	25664.75
662.00	25863.70
663.00	25947.96
664.00	26048.60
665.00	26131.30
666.00	26253.01
667.00	26387.98
668.00	26536.99
669.00	26714.09
670.00	26814.74
671.00	27066.74
672.00	27206.39
673.00	27190.00
674.00	27316.39
675.00	27480.23
676.00	28031.82
677.00	28103.59
678.00	28265.09
679.00	28251.83
680.00	28401.62
681.00	28731.64
682.00	28906.40
683.00	29106.12
684.00	29144.35
685.00	29337.05
686.00	29480.61
687.00	29813.74
688.00	29937.01
689.00	30242.06
690.00	30264.69
691.00	30562.72
692.00	30621.23
693.00	30709.39
694.00	30923.16
695.00	31156.43
696.00	31481.77
697.00	31614.40
698.00	31713.48
699.00	31782.91
700.00	31896.82
701.00	32268.19
702.00	32489.76
703.00	32724.59
704.00	32792.47
705.00	33075.67
706.00	33277.74
707.00	33375.26
708.00	33483.70
709.00	33515.69
710.00	33718.54
711.00	33936.21
712.00	34160.90
713.00	34241.26
714.00	34276.37
715.00	34348.92
716.00	34472.19
717.00	34761.64
718.00	34739.79
719.00	34823.27
720.00	34832.63
721.00	35093.21
722.00	35216.48
723.00	35410.74
724.00	35857.01
725.00	35853.89
726.00	35822.68
727.00	35799.27
728.00	36083.26
729.00	36213.55
730.00	36349.30
731.00	36467.11
732.00	36611.44
733.00	36550.59
734.00	36620.02
735.00	36621.58
736.00	36670.73
737.00	36971.10
738.00	37180.97
739.00	37369.77
740.00	37383.04
741.00	37625.67
742.00	37811.35
743.00	37833.98
744.00	37773.91
745.00	37975.97
746.00	38167.12
747.00	38512.73
748.00	38692.18
749.00	38987.86
750.00	38960.56
751.00	38899.70
752.00	39115.81
753.00	39399.02
754.00	39739.18
755.00	39807.83
756.00	39956.85
757.00	39949.04
758.00	40089.48
759.00	39995.85
760.00	40047.35
761.00	40194.80
762.00	40439.00
763.00	40666.03
764.00	40577.09
765.00	40685.53
766.00	40888.38
767.00	41209.81
768.00	41336.20
769.00	41461.03
770.00	41642.81
771.00	41921.34
772.00	42197.52
773.00	42204.54
774.00	42384.76
775.00	42319.23
776.00	42411.29
777.00	42493.21
778.00	42611.01
779.00	42884.08
780.00	42839.61
781.00	43039.33
782.00	43023.73
783.00	43199.27
784.00	43218.77
785.00	43395.87
786.00	43631.49
787.00	43966.96
788.00	44233.78
789.00	44439.75
790.00	44431.95
791.00	44509.97
792.00	44473.30
793.00	44671.46
794.00	44659.76
795.00	44651.18
796.00	44866.51
797.00	45030.35
798.00	45380.65
799.00	45264.40
800.00	45548.39
801.00	45673.99
802.00	45876.06
803.00	45722.37
804.00	45744.99
805.00	46150.68
806.00	46567.30
807.00	46676.52
808.00	46477.58
809.00	46470.56
810.00	46665.60
811.00	46896.53
812.00	46919.94
813.00	47193.78
814.00	47376.34
815.00	47657.21
816.00	47665.79
817.00	47612.74
818.00	47583.87
819.00	47696.22
820.00	47802.32
821.00	47906.87
822.00	47743.81
823.00	47934.95
824.00	48054.32
825.00	48339.86
826.00	48509.94
827.00	48706.55
828.00	48838.40
829.00	48768.18
830.00	48895.35
831.00	49020.96
832.00	49176.22
833.00	48989.75
834.00	49034.22
835.00	49154.37
836.00	49359.56
837.00	49542.12
838.00	49707.52
839.00	49837.81
840.00	49945.47
841.00	50065.62
842.00	50379.25
843.00	50598.48
844.00	50593.80
845.00	50703.81
846.00	50679.62
847.00	50813.81
848.00	50820.05
849.00	50922.26
850.00	50945.66
851.00	51125.10
852.00	51062.69
853.00	51226.52
854.00	51147.73
855.00	51411.43
856.00	51409.09
857.00	51537.82
858.00	51680.59
859.00	51597.11
860.00	51690.73
861.00	51442.63
862.00	51693.85
863.00	51654.06
864.00	51726.62
865.00	51799.96
866.00	52001.24
867.00	52239.98
868.00	52416.30
869.00	52568.43
870.00	52545.81
871.00	52525.52
872.00	52362.47
873.00	52581.70
874.00	52625.39
875.00	52775.18
876.00	52855.54
877.00	53078.67
878.00	53187.11
879.00	53206.62
880.00	53226.12
881.00	53257.33
882.00	53144.20
883.00	53114.56
884.00	53090.37
885.00	53175.41
886.00	53229.24
887.00	53442.23
888.00	53636.50
889.00	53658.34
890.00	53627.13
891.00	53666.92
892.00	53807.36
893.00	53715.29
894.00	53587.35
895.00	53607.63
896.00	53716.86
897.00	53865.09
898.00	53815.94
899.00	54015.66
900.00	54177.94
901.00	54402.63
902.00	54443.20
903.00	54454.12
904.00	54504.84
905.00	54702.22
906.00	54869.18
907.00	54869.18
908.00	54716.26
909.00	54810.67
910.00	54738.89
911.00	54718.60
912.00	54555.55
913.00	54671.79
914.00	54684.28
915.00	54829.39
916.00	54721.72
917.00	54763.07
918.00	54702.22
919.00	54741.23
920.00	54898.05
921.00	54995.57
922.00	55205.44
923.00	55108.69
924.00	55069.68
925.00	55118.06
926.00	55382.54
927.00	55519.07
928.00	55625.17
929.00	55629.85
930.00	55758.58
931.00	55718.01
932.00	55720.35
933.00	55707.09
934.00	55677.44
935.00	55620.49
936.00	55668.86
937.00	55820.22
938.00	55805.39
939.00	55835.82
940.00	55755.46
941.00	55884.19
942.00	55980.15
943.00	56167.40
944.00	56336.69
945.00	56252.44
946.00	56353.08
947.00	56257.12
948.00	56466.20
949.00	56409.25
950.00	56588.69
951.00	56473.23
952.00	56551.24
953.00	56482.59
954.00	56623.02
955.00	56578.55
956.00	56681.53
957.00	56691.68
958.00	56875.80
959.00	57003.75
960.00	57064.60
961.00	56908.57
962.00	56933.53
963.00	56951.48
964.00	57168.36
965.00	57216.74
966.00	57419.58
967.00	57592.78
968.00	57655.98
969.00	57532.71
970.00	57506.18
971.00	57620.09
972.00	57744.14
973.00	57677.04
974.00	57624.77
975.00	57693.43
976.00	57698.89
977.00	57666.12
978.00	57599.80
979.00	57769.10
980.00	57839.32
981.00	58045.29
982.00	57979.75
983.00	58014.08
984.00	57986.77
985.00	58072.59
986.00	58034.36
987.00	57940.74
988.00	57960.25
989.00	57983.65
990.00	58142.81
991.00	58112.38
992.00	58323.03
993.00	58285.58
994.00	58512.61
995.00	58588.29
996.00	58742.77
997.00	58860.57
998.00	58962.00
999.00	59107.89
1000.00	59133.63
1001.00	59091.51
1002.00	58923.77
1003.00	58692.05
1004.00	58635.88
1005.00	58622.62
1006.00	58844.97
1007.00	58921.43
1008.00	59047.82
1009.00	58886.32
1010.00	58837.17
1011.00	58809.86
1012.00	59050.94
1013.00	59118.03
1014.00	59202.29
1015.00	59089.16
1016.00	59153.92
1017.00	59241.30
1018.00	59451.95
1019.00	59560.39
1020.00	59568.97
1021.00	59582.24
1022.00	59615.79
1023.00	59584.58
1024.00	59498.76
1025.00	59485.50
1026.00	59576.00
1027.00	59691.46
1028.00	59714.87
1029.00	59703.95
1030.00	59700.82
1031.00	59791.33
1032.00	59926.30
1033.00	60050.34
1034.00	60001.97
1035.00	60004.31
1036.00	60010.56
1037.00	60141.63
1038.00	60179.07
1039.00	60159.57
1040.00	60175.95
1041.00	60208.72
1042.00	60236.81
1043.00	60321.85
1044.00	60378.02
1045.00	60493.49
1046.00	60492.71
1047.00	60466.18
1048.00	60492.71
1049.00	60544.20
1050.00	60708.82
1051.00	60719.74
1052.00	60719.74
1053.00	60686.19
1054.00	60598.81
1055.00	60548.10
1056.00	60471.64
1057.00	60598.81
1058.00	60707.26
1059.00	60837.54
1060.00	60929.61
1061.00	60968.61
1062.00	61028.69
1063.00	61046.63
1064.00	61009.96
1065.00	60895.28
1066.00	60859.39
1067.00	60891.38
1068.00	60989.68
1069.00	61016.99
1070.00	61041.17
1071.00	61135.57
1072.00	61185.50
1073.00	61292.39
1074.00	61310.33
1075.00	61376.65
1076.00	61348.56
1077.00	61417.22
1078.00	61491.33
1079.00	61588.08
1080.00	61609.14
1081.00	61658.29
1082.00	61722.27
1083.00	61761.28
1084.00	61775.32
1085.00	61682.48
1086.00	61711.34
1087.00	61702.76
1088.00	61745.67
1089.00	61772.20
1090.00	61697.30
1091.00	61745.67
1092.00	61720.71
1093.00	61762.84
1094.00	61758.16
1095.00	61780.78
1096.00	61811.21
1097.00	61890.01
1098.00	61854.90
1099.00	61929.79
1100.00	61960.22
1101.00	62005.47
1102.00	62053.06
1103.00	62055.40
1104.00	62148.24
1105.00	62156.83
1106.00	62202.08
1107.00	62153.71
1108.00	62191.15
1109.00	62252.01
1110.00	62317.54
1111.00	62222.36
1112.00	62203.64
1113.00	62103.77
1114.00	62136.54
1115.00	62023.42
1116.00	62104.55
1117.00	62155.27
1118.00	62248.89
1119.00	62215.34
1120.00	62296.48
1121.00	62292.58
1122.00	62433.79
1123.00	62403.36
1124.00	62394.78
1125.00	62301.16
1126.00	62332.37
1127.00	62440.81
1128.00	62486.84
1129.00	62430.67
1130.00	62421.31
1131.00	62450.95
1132.00	62497.76
1133.00	62462.66
1134.00	62378.40
1135.00	62274.63
1136.00	62343.29
1137.00	62428.33
1138.00	62589.83
1139.00	62590.61
1140.00	62592.17
1141.00	62609.33
1142.00	62632.74
1143.00	62680.33
1144.00	62692.81
1145.00	62695.15
1146.00	62772.39
1147.00	62802.81
1148.00	62862.11
1149.00	62779.41
1150.00	62771.61
1151.00	62698.27
1152.00	62724.02
1153.00	62674.09
1154.00	62601.53
1155.00	62553.16
1156.00	62567.20
1157.00	62602.31
1158.00	62596.85
1159.00	62578.12
1160.00	62695.93
1161.00	62790.33
1162.00	62819.98
1163.00	62717.78
1164.00	62679.55
1165.00	62745.86
1166.00	62841.04
1167.00	62908.92
1168.00	63014.24
1169.00	63047.01
1170.00	63066.51
1171.00	63003.32
1172.00	62944.81
1173.00	62885.51
1174.00	62802.81
1175.00	62873.03
1176.00	62863.67
1177.00	62887.07
1178.00	62869.13
1179.00	62950.27
1180.00	63015.02
1181.00	62968.99
1182.00	62939.35
1183.00	62905.80
1184.00	62968.21
1185.00	62990.84
1186.00	63028.29
1187.00	63018.14
1188.00	63134.39
1189.00	63110.20
1190.00	63095.38
1191.00	62994.74
1192.00	62920.62
1193.00	62857.43
1194.00	62820.76
1195.00	62890.97
1196.00	62905.80
1197.00	62901.90
1198.00	62912.04
1199.00	63068.86
1200.00	63118.01
1201.00	63210.85
1202.00	63065.73
1203.00	63061.05
1204.00	62921.40
1205.00	62993.96
1206.00	62981.48
1207.00	63017.36
1208.00	62967.43
1209.00	63112.55
1210.00	63267.80
1211.00	63366.10
1212.00	63371.56
1213.00	63281.06
1214.00	63192.90
1215.00	63056.37
1216.00	62957.29
1217.00	63015.80
1218.00	63075.10
1219.00	63201.49
1220.00	63220.99
1221.00	63138.29
1222.00	63085.24
1223.00	63127.37
1224.00	63185.88
1225.00	63236.59
1226.00	63238.15
1227.00	63170.28
1228.00	63048.57
1229.00	62967.43
1230.00	62951.05
1231.00	63040.77
1232.00	63111.77
1233.00	63258.44
1234.00	63257.66
1235.00	63259.22
1236.00	63323.97
1237.00	63349.72
1238.00	63431.64
1239.00	63455.04
1240.00	63577.53
1241.00	63584.55
1242.00	63590.80
1243.00	63534.62
1244.00	63497.95
1245.00	63468.31
1246.00	63523.70
1247.00	63588.45
1248.00	63637.61
1249.00	63727.33
1250.00	63743.71
1251.00	63785.06
1252.00	63847.47
1253.00	63930.17
1254.00	63974.64
1255.00	63870.10
1256.00	63796.76
1257.00	63727.33
1258.00	63749.17
1259.00	63830.31
1260.00	63887.26
1261.00	63921.59
1262.00	63919.25
1263.00	63955.92
1264.00	63934.07
1265.00	63901.31
1266.00	63856.06
1267.00	63863.86
1268.00	63921.59
1269.00	63983.22
1270.00	63965.28
1271.00	63997.27
1272.00	64072.95
1273.00	64173.59
1274.00	64247.71
1275.00	64178.27
1276.00	64165.01
1277.00	64023.79
1278.00	64037.06
1279.00	64003.51
1280.00	64064.36
1281.00	64172.03
1282.00	64368.63
1283.00	64430.27
1284.00	64357.71
1285.00	64349.13
1286.00	64435.73
1287.00	64451.33
1288.00	64360.05
1289.00	64247.71
1290.00	64227.42
1291.00	64284.37
1292.00	64331.18
1293.00	64381.12
1294.00	64363.17
1295.00	64384.24
1296.00	64407.64
1297.00	64314.80
1298.00	64289.84
1299.00	64271.89
1300.00	64413.88
1301.00	64488.78
1302.00	64504.38
1303.00	64454.45
1304.00	64425.59
1305.00	64418.56
1306.00	64463.03
1307.00	64456.01
1308.00	64477.08
1309.00	64434.95
1310.00	64449.77
1311.00	64446.65
1312.00	64527.01
1313.00	64567.58
1314.00	64658.08
1315.00	64657.30
1316.00	64635.45
1317.00	64539.49
1318.00	64585.52
1319.00	64667.44
1320.00	64761.84
1321.00	64807.09
1322.00	64878.87
1323.00	64974.83
1324.00	64975.61
1325.00	64881.99
1326.00	64768.86
1327.00	64732.20
1328.00	64684.61
1329.00	64690.07
1330.00	64704.11
1331.00	64805.53
1332.00	64853.12
1333.00	64942.06
1334.00	64982.63
1335.00	65024.76
1336.00	64957.67
1337.00	65028.66
1338.00	64999.02
1339.00	65055.19
1340.00	65056.75
1341.00	65178.46
1342.00	65182.36
1343.00	65180.02
1344.00	65087.18
1345.00	65049.73
1346.00	64912.42
1347.00	64903.84
1348.00	64865.61
1349.00	64855.46
1350.00	64740.78
1351.00	64768.08
1352.00	64771.21
1353.00	64846.10
1354.00	64794.61
1355.00	64824.26
1356.00	64846.88
1357.00	64920.22
1358.00	64970.15
1359.00	65009.94
1360.00	65028.66
1361.00	65028.66
1362.00	65030.22
1363.00	65007.60
1364.00	64970.93
1365.00	65073.13
1366.00	65043.49
1367.00	65076.26
1368.00	65019.30
1369.00	65058.31
1370.00	65094.20
1371.00	65031.00
1372.00	64990.44
1373.00	64936.60
1374.00	65005.26
1375.00	65009.94
1376.00	65135.55
1377.00	65077.04
1378.00	65088.74
1379.00	64959.23
1380.00	64962.35
1381.00	64996.68
1382.00	65085.62
1383.00	65107.46
1384.00	65149.59
1385.00	65109.80
1386.00	65214.35
1387.00	65265.84
1388.00	65350.88
1389.00	65259.60
1390.00	65194.84
1391.00	65142.57
1392.00	65205.76
1393.00	65175.34
1394.00	65045.83
1395.00	64896.03
1396.00	64876.53
1397.00	64938.94
1398.00	64951.43
1399.00	64899.15
1400.00	64929.58
1401.00	64902.28
1402.00	64930.36
1403.00	64835.18
1404.00	64851.56
1405.00	64796.95
1406.00	64814.12
1407.00	64878.87
1408.00	64905.40
1409.00	64879.65
1410.00	64867.95
1411.00	64892.91
1412.00	64890.57
1413.00	64876.53
1414.00	64898.37
1415.00	65074.69
1416.00	65113.70
1417.00	65084.06
1418.00	64958.45
1419.00	64970.93
1420.00	65013.84
1421.00	64960.01
1422.00	64907.74
1423.00	64885.89
1424.00	64845.32
1425.00	64771.21
1426.00	64647.16
1427.00	64743.12
1428.00	64728.30
1429.00	64781.35
1430.00	64815.68
1431.00	64861.71
1432.00	64906.96
1433.00	64901.49
1434.00	64931.92
1435.00	64883.55
1436.00	64785.25
1437.00	64725.17
1438.00	64691.63
1439.00	64750.92
1440.00	64836.74
1441.00	64942.84
1442.00	65023.98
1443.00	65049.73
1444.00	65038.03
1445.00	64941.28
1446.00	64892.91
1447.00	64840.64
1448.00	64739.22
1449.00	64631.55
1450.00	64678.36
1451.00	64700.99
1452.00	64700.21
1453.00	64669.00
1454.00	64707.23
1455.00	64781.35
1456.00	64711.91
1457.00	64768.08
1458.00	64829.72
1459.00	64872.63
1460.00	64897.59
1461.00	64880.43
1462.00	64801.63
1463.00	64608.93
1464.00	64525.45
1465.00	64585.52
1466.00	64704.89
1467.00	64699.43
1468.00	64708.79
1469.00	64713.47
1470.00	64743.12
1471.00	64734.54
1472.00	64738.44
1473.00	64679.14
1474.00	64689.29
1475.00	64688.51
1476.00	64789.15
1477.00	64765.74
1478.00	64733.76
1479.00	64670.56
1480.00	64613.61
1481.00	64601.13
1482.00	64648.72
1483.00	64759.50
1484.00	64775.89
1485.00	64622.97
1486.00	64449.77
1487.00	64298.42
1488.00	64303.88
1489.00	64298.42
1490.00	64288.27
1491.00	64290.62
1492.00	64274.23
1493.00	64363.95
1494.00	64350.69
1495.00	64385.02
1496.00	64391.26
1497.00	64377.22
1498.00	64415.44
1499.00	64338.21
1500.00	64391.26
1501.00	64417.78
1502.00	64448.99
1503.00	64364.73
1504.00	64328.06
1505.00	64445.87
1506.00	64534.81
1507.00	64453.67
1508.00	64338.21
1509.00	64265.65
1510.00	64277.35
1511.00	64195.43
1512.00	64166.57
1513.00	64174.37
1514.00	64254.73
1515.00	64239.12
1516.00	64143.16
1517.00	64103.37
1518.00	64113.51
1519.00	64178.27
1520.00	64214.16
1521.00	64202.45
1522.00	64194.65
1523.00	64094.79
1524.00	64023.01
1525.00	64054.22
1526.00	64035.50
1527.00	64051.10
1528.00	63998.83
1529.00	63992.59
1530.00	63931.73
1531.00	63966.06
1532.00	63962.16
1533.00	64092.45
1534.00	64078.41
1535.00	64105.71
1536.00	64066.70
1537.00	64119.76
1538.00	64080.75
1539.00	64047.20
1540.00	64012.87
1541.00	64048.76
1542.00	64039.40
1543.00	64025.35
1544.00	64020.67
1545.00	64126.00
1546.00	64123.66
1547.00	64049.54
1548.00	64010.53
1549.00	63898.97
1550.00	63920.81
1551.00	63856.84
1552.00	63928.61
1553.00	64046.42
1554.00	64024.57
1555.00	64008.97
1556.00	63945.78
1557.00	63919.25
1558.00	63919.25
1559.00	63935.63
1560.00	63953.58
1561.00	63940.31
1562.00	63905.21
1563.00	63899.75
1564.00	63924.71
1565.00	63888.04
1566.00	63881.80
1567.00	63924.71
1568.00	63919.25
1569.00	63887.26
1570.00	63821.73
1571.00	63817.83
1572.00	63691.44
1573.00	63624.34
1574.00	63529.94
1575.00	63606.40
1576.00	63528.38
1577.00	63590.80
1578.00	63600.16
1579.00	63608.74
1580.00	63533.06
1581.00	63497.17
1582.00	63549.45
1583.00	63579.09
1584.00	63562.71
1585.00	63516.68
1586.00	63471.43
1587.00	63394.97
1588.00	63367.66
1589.00	63353.62
1590.00	63408.23
1591.00	63416.04
1592.00	63362.20
1593.00	63340.36
1594.00	63288.87
1595.00	63336.46
1596.00	63383.27
1597.00	63412.13
1598.00	63370.78
1599.00	63370.78
1600.00	63380.15
1601.00	63381.71
1602.00	63336.46
1603.00	63273.26
1604.00	63299.01
1605.00	63263.90
1606.00	63332.56
1607.00	63281.84
1608.00	63217.87
1609.00	63092.26
1610.00	63096.94
1611.00	63189.78
1612.00	63325.53
1613.00	63452.70
1614.00	63465.97
1615.00	63452.70
1616.00	63299.79
1617.00	63250.64
1618.00	63181.98
1619.00	63171.06
1620.00	63149.21
1621.00	63157.02
1622.00	63206.95
1623.00	63199.93
1624.00	63274.04
1625.00	63234.25
1626.00	63296.67
1627.00	63222.55
1628.00	63269.36
1629.00	63287.31
1630.00	63310.71
1631.00	63363.76
1632.00	63376.25
1633.00	63291.99
1634.00	63256.10
1635.00	63141.41
1636.00	63118.01
1637.00	63032.19
1638.00	62972.11
1639.00	62931.54
1640.00	62906.58
1641.00	62992.40
1642.00	63026.73
1643.00	63036.09
1644.00	62896.44
1645.00	62842.60
1646.00	62802.03
1647.00	62784.09
1648.00	62851.19
1649.00	62854.31
1650.00	62883.95
1651.00	62731.04
1652.00	62677.21
1653.00	62718.56
1654.00	62734.16
1655.00	62718.56
1656.00	62664.72
1657.00	62789.55
1658.00	62887.07
1659.00	62956.51
1660.00	62960.41
1661.00	62893.32
1662.00	62924.52
1663.00	62915.94
1664.00	62956.51
1665.00	62934.66
1666.00	62898.00
1667.00	62919.06
1668.00	62922.18
1669.00	62977.57
1670.00	63034.53
1671.00	63048.57
1672.00	63049.35
1673.00	62986.94
1674.00	63017.36
1675.00	62943.25
1676.00	62890.19
1677.00	62725.58
1678.00	62648.34
1679.00	62556.28
1680.00	62494.64
1681.00	62518.83
1682.00	62567.20
1683.00	62581.24
1684.00	62522.73
1685.00	62491.52
1686.00	62520.39
1687.00	62518.05
1688.00	62500.11
1689.00	62425.21
1690.00	62326.13
1691.00	62283.22
1692.00	62297.26
1693.00	62398.68
1694.00	62429.89
1695.00	62500.11
1696.00	62516.49
1697.00	62458.76
1698.00	62449.39
1699.00	62284.00
1700.00	62229.38
1701.00	62100.65
1702.00	62170.09
1703.00	62203.64
1704.00	62161.51
1705.00	62108.46
1706.00	62053.06
1707.00	62012.49
1708.00	61946.18
1709.00	61923.55
1710.00	61928.23
1711.00	62053.06
1712.00	62095.19
1713.00	62095.97
1714.00	62011.71
1715.00	61958.66
1716.00	61891.57
1717.00	61809.65
1718.00	61719.93
1719.00	61722.27
1720.00	61741.77
1721.00	61712.91
1722.00	61659.85
1723.00	61668.44
1724.00	61663.75
1725.00	61657.51
1726.00	61505.38
1727.00	61443.74
1728.00	61426.58
1729.00	61485.09
1730.00	61587.30
1731.00	61638.79
1732.00	61666.09
1733.00	61620.06
1734.00	61616.16
1735.00	61599.78
1736.00	61616.16
1737.00	61537.37
1738.00	61434.38
1739.00	61346.22
1740.00	61339.20
1741.00	61300.19
1742.00	61304.09
1743.00	61217.49
1744.00	61158.20
1745.00	61013.87
1746.00	60953.01
1747.00	61016.21
1748.00	60987.34
1749.00	61064.58
1750.00	61027.13
1751.00	60993.58
1752.00	60796.20
1753.00	60672.93
1754.00	60628.46
1755.00	60573.84
1756.00	60616.75
1757.00	60679.17
1758.00	60645.62
1759.00	60454.48
1760.00	60290.64
1761.00	60340.57
1762.00	60339.01
1763.00	60251.63
1764.00	60170.49
1765.00	60148.65
1766.00	60167.37
1767.00	60136.94
1768.00	60090.91
1769.00	60117.44
1770.00	60169.71
1771.00	60110.42
1772.00	60078.43
1773.00	60002.75
1774.00	60001.19
1775.00	59836.58
1776.00	59734.37
1777.00	59753.10
1778.00	59778.84
1779.00	59805.37
1780.00	59711.75
1781.00	59765.58
1782.00	59714.09
1783.00	59705.51
1784.00	59594.72
1785.00	59607.20
1786.00	59497.20
1787.00	59480.03
1788.00	59417.62
1789.00	59473.79
1790.00	59458.97
1791.00	59333.36
1792.00	59238.96
1793.00	59205.41
1794.00	59175.76
1795.00	59171.08
1796.00	58979.94
1797.00	58930.01
1798.00	58947.95
1799.00	59001.78
1800.00	58960.44
1801.00	58762.27
1802.00	58738.08
1803.00	58674.89
1804.00	58719.36
1805.00	58617.16
1806.00	58572.69
1807.00	58426.01
1808.00	58250.47
1809.00	58157.63
1810.00	58088.98
1811.00	58026.56
1812.00	57791.73
1813.00	57661.44
1814.00	57584.20
1815.00	57535.83
1816.00	57447.67
1817.00	57329.08
1818.00	57269.01
1819.00	57134.04
1820.00	57146.52
1821.00	57070.84
1822.00	57127.80
1823.00	57035.73
1824.00	57035.73
1825.00	56991.26
1826.00	57110.63
1827.00	57122.33
1828.00	57155.88
1829.00	57000.63
1830.00	56765.79
1831.00	56553.58
1832.00	56371.80
1833.00	56285.98
1834.00	56106.54
1835.00	55919.30
1836.00	55728.94
1837.00	55646.24
1838.00	55659.50
1839.00	55699.29
1840.00	55668.08
1841.00	55631.41
1842.00	55667.30
1843.00	55643.90
1844.00	55538.57
1845.00	55440.27
1846.00	55207.00
1847.00	54931.59
1848.00	54666.33
1849.00	54463.49
1850.00	54390.93
1851.00	54336.32
1852.00	54429.16
1853.00	54408.87
1854.00	54277.80
1855.00	53989.14
1856.00	53899.42
1857.00	53887.71
1858.00	53961.05
1859.00	53797.99
1860.00	53515.57
1861.00	53234.70
1862.00	52974.91
1863.00	52894.55
1864.00	52871.92
1865.00	52863.34
1866.00	52743.19
1867.00	52633.97
1868.00	52567.65
1869.00	52450.63
1870.00	52321.90
1871.00	52188.49
1872.00	52040.25
1873.00	51910.74
1874.00	51796.84
1875.00	51672.01
1876.00	51512.07
1877.00	51320.15
1878.00	51295.18
1879.00	51252.27
1880.00	51129.78
1881.00	50908.21
1882.00	50600.04
1883.00	50393.29
1884.00	50195.13
1885.00	49975.90
1886.00	50012.57
1887.00	50055.48
1888.00	49964.20
1889.00	49708.30
1890.00	49450.06
1891.00	49382.18
1892.00	49302.60
1893.00	49451.62
1894.00	49521.05
1895.00	49480.49
1896.00	49154.37
1897.00	48936.70
1898.00	48760.38
1899.00	48506.04
1900.00	48226.74
1901.00	47941.97
1902.00	47897.50
1903.00	47929.49
1904.00	47744.59
1905.00	47657.99
1906.00	47356.06
1907.00	47303.79
1908.00	47129.81
1909.00	46976.89
1910.00	46971.43
1911.00	46750.64
1912.00	46545.45
1913.00	46181.89
1914.00	46007.91
1915.00	45804.28
1916.00	45814.43
1917.00	45431.36
1918.00	45306.53
1919.00	44930.48
1920.00	44814.24
1921.00	44632.46
1922.00	44322.72
1923.00	44291.52
1924.00	44068.39
1925.00	43940.44
1926.00	43711.06
1927.00	43300.69
1928.00	43089.26
1929.00	42848.19
1930.00	42862.23
1931.00	42772.51
1932.00	42469.80
1933.00	42295.04
1934.00	42058.65
1935.00	42045.38
1936.00	41783.24
1937.00	41573.38
1938.00	41341.66
1939.00	41262.08
1940.00	41088.88
1941.00	40851.71
1942.00	40609.85
1943.00	40252.53
1944.00	39961.53
1945.00	39609.67
1946.00	39511.36
1947.00	39521.51
1948.00	39505.90
1949.00	39484.06
1950.00	39202.41
1951.00	39113.47
1952.00	38862.26
1953.00	38561.11
1954.00	38161.65
1955.00	37845.68
1956.00	37595.24
1957.00	37322.18
1958.00	37021.81
1959.00	36838.47
1960.00	36541.22
1961.00	36324.33
1962.00	35917.08
1963.00	35848.43
1964.00	35853.89
1965.00	35870.27
1966.00	35654.16
1967.00	35323.36
1968.00	35023.78
1969.00	34810.01
1970.00	34364.53
1971.00	34054.79
1972.00	33752.09
1973.00	33674.07
1974.00	33535.20
1975.00	33265.25
1976.00	32861.90
1977.00	32681.68
1978.00	32477.27
1979.00	32450.75
1980.00	32374.29
1981.00	32207.33
1982.00	31959.24
1983.00	31725.18
1984.00	31502.83
1985.00	31360.84
1986.00	31017.56
1987.00	30842.80
1988.00	30634.49
1989.00	30419.94
1990.00	30217.88
1991.00	29938.57
1992.00	29733.39
1993.00	29538.34
1994.00	29338.62
1995.00	29209.11
1996.00	29099.88
1997.00	28938.38
1998.00	28648.16
1999.00	28308.00
2000.00	28285.37
2001.00	28195.65
2002.00	28167.57
2003.00	27834.43
2004.00	27483.35
2005.00	27160.36
2006.00	27012.12
2007.00	26778.07
2008.00	26399.68
2009.00	25941.72
2010.00	25711.57
2011.00	25764.62
2012.00	25940.94
2013.00	25944.06
2014.00	25638.23
2015.00	25243.46
2016.00	25084.30
2017.00	25059.34
2018.00	25039.05
2019.00	24869.75
2020.00	24642.72
2021.00	24340.79
2022.00	24087.23
2023.00	23930.42
2024.00	23841.48
2025.00	23737.71
2026.00	23540.33
2027.00	23285.99
2028.00	23141.66
2029.00	23005.13
2030.00	22870.93
2031.00	22590.85
2032.00	22429.35
2033.00	22308.43
2034.00	22225.73
2035.00	21958.91
2036.00	21790.39
2037.00	21488.46
2038.00	21220.08
2039.00	20817.50
2040.00	20688.78
2041.00	20635.72
2042.00	20567.85
2043.00	20482.81
2044.00	20436.78
2045.00	20411.03
2046.00	20185.56
2047.00	19793.91
>>>>>End Processed Spectral Data<<<<<
