SpectraSuite Data File
++++++++++++++++++++++++++++++++++++
Date: Thu Nov 16 14:01:17 EST 2017
User: cheriyan
Dark Spectrum Present: No
Reference Spectrum Present: No
Number of Sampled Component Spectra: 1
Spectrometers: USB2+H05261
Integration Time (usec): 100000 (USB2+H05261)
Spectra Averaged: 1 (USB2+H05261)
Boxcar Smoothing: 1 (USB2+H05261)
Correct for Electrical Dark: No (USB2+H05261)
Strobe/Lamp Enabled: No (USB2+H05261)
Correct for Detector Non-linearity: No (USB2+H05261)
Correct for Stray Light: No (USB2+H05261)
Number of Pixels in Processed Spectrum: 2048
>>>>>Begin Processed Spectral Data<<<<<
0.00	376.83
1.00	376.83
2.00	350.30
3.00	320.65
4.00	278.52
5.00	281.64
6.00	269.94
7.00	253.56
8.00	219.23
9.00	206.75
10.00	223.91
11.00	244.98
12.00	261.36
13.00	249.66
14.00	244.20
15.00	244.98
16.00	252.78
17.00	244.98
18.00	244.98
19.00	288.67
20.00	294.13
21.00	292.57
22.00	276.18
23.00	356.54
24.00	510.24
25.00	691.24
26.00	847.27
27.00	898.77
28.00	887.84
29.00	857.42
30.00	834.01
31.00	841.03
32.00	848.05
33.00	875.36
34.00	880.82
35.00	871.46
36.00	879.26
37.00	909.69
38.00	936.99
39.00	926.07
40.00	916.71
41.00	884.72
42.00	903.45
43.00	887.06
44.00	912.81
45.00	916.71
46.00	936.21
47.00	936.99
48.00	939.34
49.00	948.70
50.00	954.16
51.00	963.52
52.00	936.99
53.00	997.07
54.00	1012.67
55.00	1040.76
56.00	988.49
57.00	991.61
58.00	999.41
59.00	1000.19
60.00	995.51
61.00	1004.09
62.00	1042.32
63.00	1026.72
64.00	1056.36
65.00	1030.62
66.00	1050.90
67.00	1032.96
68.00	1025.15
69.00	1015.01
70.00	1017.35
71.00	1053.24
72.00	1065.72
73.00	1073.53
74.00	1093.81
75.00	1121.90
76.00	1139.84
77.00	1110.97
78.00	1099.27
79.00	1086.79
80.00	1109.41
81.00	1123.46
82.00	1102.39
83.00	1090.69
84.00	1093.03
85.00	1103.95
86.00	1128.14
87.00	1154.66
88.00	1192.11
89.00	1171.05
90.00	1129.70
91.00	1146.08
92.00	1201.48
93.00	1223.32
94.00	1221.76
95.00	1208.50
96.00	1221.76
97.00	1200.69
98.00	1182.75
99.00	1160.13
100.00	1188.99
101.00	1213.18
102.00	1220.20
103.00	1218.64
104.00	1235.80
105.00	1262.33
106.00	1251.41
107.00	1257.65
108.00	1270.91
109.00	1305.24
110.00	1308.36
111.00	1331.76
112.00	1333.33
113.00	1339.57
114.00	1336.45
115.00	1332.54
116.00	1332.54
117.00	1377.80
118.00	1400.42
119.00	1397.30
120.00	1362.97
121.00	1362.97
122.00	1403.54
123.00	1412.12
124.00	1433.19
125.00	1416.02
126.00	1420.71
127.00	1420.71
128.00	1458.93
129.00	1504.18
130.00	1514.33
131.00	1500.28
132.00	1465.96
133.00	1476.10
134.00	1455.03
135.00	1451.13
136.00	1446.45
137.00	1495.60
138.00	1531.49
139.00	1547.09
140.00	1505.74
141.00	1497.16
142.00	1519.79
143.00	1603.27
144.00	1629.01
145.00	1638.38
146.00	1618.09
147.00	1631.35
148.00	1625.89
149.00	1624.33
150.00	1649.30
151.00	1657.10
152.00	1695.33
153.00	1681.28
154.00	1682.06
155.00	1674.26
156.00	1689.09
157.00	1706.25
158.00	1698.45
159.00	1730.44
160.00	1756.18
161.00	1771.79
162.00	1756.96
163.00	1772.57
164.00	1781.93
165.00	1804.55
166.00	1795.19
167.00	1815.48
168.00	1805.33
169.00	1832.64
170.00	1854.48
171.00	1870.87
172.00	1854.48
173.00	1842.00
174.00	1874.77
175.00	1916.12
176.00	1980.87
177.00	1993.36
178.00	1993.36
179.00	1973.07
180.00	1954.35
181.00	1976.97
182.00	1952.01
183.00	1944.99
184.00	1945.77
185.00	1971.51
186.00	2048.75
187.00	2090.10
188.00	2130.67
189.00	2105.70
190.00	2083.08
191.00	2077.62
192.00	2076.06
193.00	2103.36
194.00	2117.40
195.00	2173.58
196.00	2138.47
197.00	2164.22
198.00	2170.46
199.00	2213.37
200.00	2193.86
201.00	2195.42
202.00	2204.78
203.00	2234.43
204.00	2257.06
205.00	2278.12
206.00	2304.65
207.00	2245.35
208.00	2237.55
209.00	2232.09
210.00	2344.44
211.00	2357.70
212.00	2349.12
213.00	2271.10
214.00	2302.31
215.00	2320.25
216.00	2350.68
217.00	2374.86
218.00	2404.51
219.00	2436.50
220.00	2397.49
221.00	2388.13
222.00	2383.45
223.00	2416.99
224.00	2437.28
225.00	2477.85
226.00	2498.13
227.00	2537.14
228.00	2551.96
229.00	2578.49
230.00	2612.82
231.00	2608.92
232.00	2648.71
233.00	2590.19
234.00	2607.36
235.00	2627.64
236.00	2681.47
237.00	2689.28
238.00	2690.84
239.00	2725.16
240.00	2779.78
241.00	2810.98
242.00	2860.13
243.00	2866.38
244.00	2853.11
245.00	2847.65
246.00	2855.45
247.00	2885.88
248.00	2899.92
249.00	2921.77
250.00	2923.33
251.00	2924.11
252.00	2957.66
253.00	3027.09
254.00	3054.40
255.00	3069.22
256.00	3046.60
257.00	3071.56
258.00	3085.61
259.00	3156.60
260.00	3197.17
261.00	3254.90
262.00	3264.27
263.00	3298.60
264.00	3292.35
265.00	3329.02
266.00	3358.67
267.00	3381.29
268.00	3413.28
269.00	3401.58
270.00	3406.26
271.00	3365.69
272.00	3418.74
273.00	3471.01
274.00	3544.35
275.00	3557.61
276.00	3573.22
277.00	3574.78
278.00	3532.65
279.00	3531.09
280.00	3538.11
281.00	3613.01
282.00	3653.58
283.00	3666.84
284.00	3659.04
285.00	3684.00
286.00	3709.75
287.00	3687.90
288.00	3686.34
289.00	3711.31
290.00	3796.35
291.00	3815.07
292.00	3817.41
293.00	3807.27
294.00	3856.42
295.00	3847.06
296.00	3857.98
297.00	3842.38
298.00	3883.73
299.00	3932.88
300.00	3982.81
301.00	3932.10
302.00	3960.19
303.00	3953.16
304.00	4021.04
305.00	4020.26
306.00	3994.51
307.00	4040.54
308.00	4021.04
309.00	4051.47
310.00	4060.83
311.00	4077.99
312.00	4082.67
313.00	4056.93
314.00	4035.86
315.00	4062.39
316.00	4131.05
317.00	4223.11
318.00	4229.35
319.00	4224.67
320.00	4192.68
321.00	4212.96
322.00	4200.48
323.00	4220.77
324.00	4269.92
325.00	4351.84
326.00	4418.15
327.00	4412.69
328.00	4333.11
329.00	4269.92
330.00	4280.06
331.00	4338.57
332.00	4342.47
333.00	4369.00
334.00	4385.38
335.00	4484.47
336.00	4491.49
337.00	4532.84
338.00	4535.96
339.00	4601.49
340.00	4632.70
341.00	4671.71
342.00	4713.84
343.00	4753.63
344.00	4812.92
345.00	4810.58
346.00	4839.45
347.00	4808.24
348.00	4824.62
349.00	4853.49
350.00	4888.60
351.00	4926.05
352.00	4972.86
353.00	5064.14
354.00	5047.76
355.00	4965.84
356.00	4904.20
357.00	4974.42
358.00	5007.19
359.00	5048.54
360.00	5062.58
361.00	5171.02
362.00	5198.33
363.00	5175.70
364.00	5181.17
365.00	5197.55
366.00	5231.88
367.00	5220.17
368.00	5242.02
369.00	5279.47
370.00	5323.94
371.00	5323.94
372.00	5304.43
373.00	5330.18
374.00	5387.13
375.00	5470.61
376.00	5463.59
377.00	5561.89
378.00	5624.31
379.00	5712.47
380.00	5703.11
381.00	5693.74
382.00	5678.92
383.00	5693.74
384.00	5717.15
385.00	5789.71
386.00	5800.63
387.00	5852.12
388.00	5874.74
389.00	5955.10
390.00	5976.95
391.00	6041.70
392.00	6073.69
393.00	6157.17
394.00	6225.83
395.00	6301.50
396.00	6326.47
397.00	6389.66
398.00	6419.31
399.00	6472.36
400.00	6435.69
401.00	6448.18
402.00	6514.49
403.00	6502.01
404.00	6570.66
405.00	6536.34
406.00	6627.62
407.00	6604.21
408.00	6562.08
409.00	6546.48
410.00	6576.13
411.00	6737.62
412.00	6760.25
413.00	6751.67
414.00	6713.44
415.00	6768.05
416.00	6875.71
417.00	6874.15
418.00	6874.93
419.00	6730.60
420.00	6774.29
421.00	6852.31
422.00	6970.90
423.00	6998.20
424.00	6966.99
425.00	7052.81
426.00	7061.40
427.00	7077.00
428.00	7006.00
429.00	7029.41
430.00	7022.39
431.00	6953.73
432.00	7026.29
433.00	6986.50
434.00	7060.62
435.00	7021.61
436.00	7103.53
437.00	7207.29
438.00	7215.09
439.00	7240.84
440.00	7232.26
441.00	7313.39
442.00	7393.75
443.00	7412.48
444.00	7439.78
445.00	7429.64
446.00	7492.05
447.00	7489.71
448.00	7548.23
449.00	7581.00
450.00	7638.73
451.00	7678.52
452.00	7694.12
453.00	7745.61
454.00	7763.56
455.00	7815.05
456.00	7879.80
457.00	7951.58
458.00	8000.73
459.00	7932.08
460.00	7909.45
461.00	7926.61
462.00	7988.25
463.00	8029.60
464.00	7999.95
465.00	8010.09
466.00	8031.16
467.00	8136.48
468.00	8249.61
469.00	8295.64
470.00	8301.88
471.00	8259.75
472.00	8308.12
473.00	8343.23
474.00	8471.18
475.00	8549.20
476.00	8572.60
477.00	8552.32
478.00	8539.83
479.00	8684.17
480.00	8794.95
481.00	8888.57
482.00	8855.81
483.00	8833.96
484.00	8860.49
485.00	8884.67
486.00	8947.87
487.00	8919.00
488.00	8980.64
489.00	8977.51
490.00	9092.20
491.00	9162.42
492.00	9178.02
493.00	9195.96
494.00	9210.01
495.00	9215.47
496.00	9234.19
497.00	9239.65
498.00	9392.57
499.00	9440.94
500.00	9509.60
501.00	9495.55
502.00	9564.21
503.00	9559.53
504.00	9621.94
505.00	9605.56
506.00	9737.41
507.00	9805.28
508.00	9878.62
509.00	9895.00
510.00	9934.79
511.00	9948.84
512.00	10028.42
513.00	10059.62
514.00	10104.87
515.00	10112.67
516.00	10148.56
517.00	10198.49
518.00	10185.23
519.00	10132.96
520.00	10215.66
521.00	10143.88
522.00	10281.97
523.00	10298.36
524.00	10535.53
525.00	10582.34
526.00	10546.45
527.00	10527.73
528.00	10459.07
529.00	10508.23
530.00	10546.45
531.00	10636.17
532.00	10672.84
533.00	10608.09
534.00	10655.68
535.00	10771.15
536.00	10795.33
537.00	10742.28
538.00	10737.60
539.00	10867.89
540.00	10958.39
541.00	10921.72
542.00	10942.00
543.00	10984.13
544.00	11119.89
545.00	11101.94
546.00	11146.41
547.00	11172.16
548.00	11316.49
549.00	11420.25
550.00	11470.97
551.00	11473.31
552.00	11468.62
553.00	11435.08
554.00	11392.95
555.00	11437.42
556.00	11488.91
557.00	11695.66
558.00	11801.76
559.00	11933.61
560.00	11957.02
561.00	11983.54
562.00	12017.09
563.00	12047.52
564.00	12094.33
565.00	12243.34
566.00	12459.45
567.00	12561.66
568.00	12524.99
569.00	12380.65
570.00	12468.81
571.00	12619.39
572.00	12779.33
573.00	12798.05
574.00	12830.04
575.00	12931.46
576.00	13150.69
577.00	13254.45
578.00	13473.68
579.00	13521.27
580.00	13597.73
581.00	13526.74
582.00	13578.23
583.00	13721.78
584.00	13955.83
585.00	14150.88
586.00	14201.59
587.00	14109.53
588.00	14058.82
589.00	14158.68
590.00	14303.01
591.00	14473.87
592.00	14700.12
593.00	14933.40
594.00	15002.83
595.00	15066.81
596.00	15088.65
597.00	15176.81
598.00	15319.59
599.00	15434.27
600.00	15635.56
601.00	15734.64
602.00	15896.92
603.00	16038.13
604.00	16244.10
605.00	16556.95
606.00	16634.19
607.00	16617.02
608.00	16539.79
609.00	16673.20
610.00	16731.71
611.00	16733.27
612.00	16837.03
613.00	17140.52
614.00	17433.87
615.00	17513.45
616.00	17504.87
617.00	17544.66
618.00	17720.20
619.00	17896.52
620.00	18102.48
621.00	18220.29
622.00	18492.57
623.00	18767.20
624.00	18912.31
625.00	18903.73
626.00	18927.91
627.00	19122.18
628.00	19221.26
629.00	19423.33
630.00	19673.76
631.00	19915.62
632.00	19915.62
633.00	20242.51
634.00	20439.12
635.00	20733.25
636.00	20802.68
637.00	21027.37
638.00	21251.28
639.00	21258.31
640.00	21236.46
641.00	21358.95
642.00	21578.96
643.00	21871.53
644.00	21972.95
645.00	22054.87
646.00	22265.52
647.00	22430.13
648.00	22600.21
649.00	22830.37
650.00	22939.59
651.00	23325.78
652.00	23255.56
653.00	23459.97
654.00	23449.83
655.00	23718.99
656.00	23893.75
657.00	24049.00
658.00	24197.24
659.00	24444.56
660.00	24768.33
661.00	24950.11
662.00	25067.92
663.00	25030.47
664.00	25187.28
665.00	25278.57
666.00	25542.27
667.00	25725.61
668.00	25915.97
669.00	25954.98
670.00	26111.02
671.00	26210.88
672.00	26295.14
673.00	26415.29
674.00	26643.10
675.00	26843.60
676.00	26944.25
677.00	27042.55
678.00	27269.58
679.00	27491.15
680.00	27749.39
681.00	27885.92
682.00	28011.53
683.00	28163.67
684.00	28364.17
685.00	28530.35
686.00	28725.39
687.00	28961.01
688.00	29205.98
689.00	29319.11
690.00	29416.63
691.00	29607.00
692.00	29745.09
693.00	29959.64
694.00	30280.29
695.00	30586.90
696.00	30792.09
697.00	30831.88
698.00	30905.21
699.00	31028.48
700.00	31085.43
701.00	31328.85
702.00	31412.33
703.00	31644.82
704.00	31764.97
705.00	32013.85
706.00	32224.50
707.00	32388.33
708.00	32538.91
709.00	32595.08
710.00	32853.32
711.00	33034.32
712.00	33195.04
713.00	33297.24
714.00	33429.87
715.00	33550.02
716.00	33503.21
717.00	33683.43
718.00	33873.01
719.00	34097.70
720.00	34100.05
721.00	34222.53
722.00	34146.86
723.00	34263.10
724.00	34277.15
725.00	34462.83
726.00	34485.45
727.00	34831.07
728.00	35134.56
729.00	35409.96
730.00	35327.27
731.00	35317.90
732.00	35312.44
733.00	35509.83
734.00	35559.76
735.00	35766.51
736.00	35850.77
737.00	36116.81
738.00	36321.99
739.00	36309.51
740.00	36449.16
741.00	36437.46
742.00	36481.93
743.00	36483.49
744.00	36765.92
745.00	37125.58
746.00	37322.18
747.00	37409.56
748.00	37642.06
749.00	37875.33
750.00	37983.77
751.00	37958.81
752.00	38148.39
753.00	38238.11
754.00	38506.49
755.00	38361.38
756.00	38489.33
757.00	38472.95
758.00	38948.85
759.00	39037.01
760.00	39186.81
761.00	39025.31
762.00	39131.42
763.00	39348.31
764.00	39567.54
765.00	39760.24
766.00	39924.86
767.00	40089.48
768.00	40147.21
769.00	40055.93
770.00	40240.83
771.00	40314.17
772.00	40683.19
773.00	40671.49
774.00	41001.50
775.00	40934.41
776.00	41216.05
777.00	41347.12
778.00	41545.29
779.00	41667.00
780.00	41663.88
781.00	41809.77
782.00	41880.77
783.00	42097.66
784.00	42121.06
785.00	42245.89
786.00	42474.48
787.00	42884.86
788.00	43082.24
789.00	43132.95
790.00	43022.17
791.00	43019.05
792.00	43159.48
793.00	43274.16
794.00	43513.68
795.00	43498.86
796.00	43803.91
797.00	43836.67
798.00	44111.30
799.00	44224.42
800.00	44492.02
801.00	44600.47
802.00	44758.84
803.00	44655.08
804.00	44768.99
805.00	44933.60
806.00	45340.08
807.00	45363.48
808.00	45474.27
809.00	45555.41
810.00	45847.19
811.00	45808.96
812.00	45820.67
813.00	45922.87
814.00	46104.65
815.00	46317.64
816.00	46420.62
817.00	46426.09
818.00	46362.89
819.00	46383.18
820.00	46579.00
821.00	46802.13
822.00	46834.12
823.00	46912.14
824.00	47013.56
825.00	47223.43
826.00	47399.75
827.00	47459.82
828.00	47459.82
829.00	47343.58
830.00	47381.02
831.00	47430.18
832.00	47597.91
833.00	47565.93
834.00	47839.77
835.00	47985.66
836.00	48209.57
837.00	48238.44
838.00	48513.06
839.00	48659.74
840.00	48827.48
841.00	48836.84
842.00	49013.94
843.00	49168.41
844.00	49292.46
845.00	49482.05
846.00	49720.00
847.00	49909.58
848.00	49993.06
849.00	50081.22
850.00	50047.68
851.00	50096.05
852.00	50060.94
853.00	50241.16
854.00	50183.43
855.00	50213.07
856.00	50089.80
857.00	50185.77
858.00	50287.19
859.00	50422.16
860.00	50612.52
861.00	50678.84
862.00	50862.96
863.00	50948.78
864.00	50852.82
865.00	50831.75
866.00	50855.16
867.00	51084.53
868.00	51153.97
869.00	51417.67
870.00	51491.01
871.00	51625.98
872.00	51492.57
873.00	51606.47
874.00	51769.53
875.00	51927.91
876.00	52025.43
877.00	52042.59
878.00	52186.92
879.00	52268.06
880.00	52324.24
881.00	52156.50
882.00	52190.83
883.00	52236.08
884.00	52278.21
885.00	52250.12
886.00	52180.68
887.00	52252.46
888.00	52265.72
889.00	52432.68
890.00	52556.73
891.00	52615.24
892.00	52716.67
893.00	52696.38
894.00	52685.46
895.00	52699.50
896.00	52825.11
897.00	52933.56
898.00	52860.22
899.00	52927.31
900.00	53059.94
901.00	53294.78
902.00	53392.30
903.00	53606.85
904.00	53842.46
905.00	54092.12
906.00	54126.45
907.00	53962.61
908.00	53678.63
909.00	53849.49
910.00	53959.49
911.00	54146.73
912.00	53974.31
913.00	53956.37
914.00	53948.57
915.00	53957.93
916.00	53987.58
917.00	53918.92
918.00	53941.55
919.00	53798.77
920.00	53853.39
921.00	53915.02
922.00	54159.22
923.00	54333.20
924.00	54303.55
925.00	54335.54
926.00	54436.96
927.00	54599.24
928.00	54644.49
929.00	54759.17
930.00	54777.90
931.00	54797.40
932.00	54757.61
933.00	54785.70
934.00	54794.28
935.00	54781.02
936.00	54830.95
937.00	55008.05
938.00	54968.26
939.00	55000.25
940.00	54984.65
941.00	55129.76
942.00	55283.45
943.00	55345.09
944.00	55396.58
945.00	55425.45
946.00	55444.95
947.00	55440.27
948.00	55551.05
949.00	55671.20
950.00	55755.46
951.00	55725.81
952.00	55672.76
953.00	55739.08
954.00	55840.50
955.00	55984.05
956.00	55949.73
957.00	55881.07
958.00	55982.49
959.00	56255.56
960.00	56312.51
961.00	56243.07
962.00	56189.24
963.00	56277.40
964.00	56401.45
965.00	56427.20
966.00	56604.30
967.00	56755.65
968.00	56903.88
969.00	56841.47
970.00	56825.09
971.00	56773.59
972.00	56839.13
973.00	56733.81
974.00	56776.72
975.00	56869.56
976.00	56994.39
977.00	57092.69
978.00	57105.17
979.00	57098.15
980.00	57020.91
981.00	57190.21
982.00	57267.45
983.00	57313.48
984.00	57269.79
985.00	57296.31
986.00	57354.83
987.00	57222.98
988.00	57287.73
989.00	57314.26
990.00	57497.60
991.00	57545.19
992.00	57670.80
993.00	57645.05
994.00	57797.97
995.00	57881.45
996.00	58057.77
997.00	58107.70
998.00	58221.61
999.00	58220.83
1000.00	58229.41
1001.00	58181.82
1002.00	58110.04
1003.00	57985.99
1004.00	57944.64
1005.00	58017.20
1006.00	58118.62
1007.00	58188.84
1008.00	58280.90
1009.00	58287.92
1010.00	58280.90
1011.00	58239.55
1012.00	58356.58
1013.00	58408.85
1014.00	58468.14
1015.00	58392.47
1016.00	58459.56
1017.00	58585.17
1018.00	58694.39
1019.00	58704.54
1020.00	58686.59
1021.00	58745.89
1022.00	58843.41
1023.00	58718.58
1024.00	58755.25
1025.00	58784.11
1026.00	58981.50
1027.00	59037.67
1028.00	59036.89
1029.00	59026.75
1030.00	59032.21
1031.00	59250.66
1032.00	59397.34
1033.00	59488.62
1034.00	59283.43
1035.00	59221.80
1036.00	59213.99
1037.00	59286.55
1038.00	59318.54
1039.00	59278.75
1040.00	59308.39
1041.00	59301.37
1042.00	59398.90
1043.00	59519.04
1044.00	59714.09
1045.00	59842.82
1046.00	59884.17
1047.00	59867.00
1048.00	59923.96
1049.00	59972.33
1050.00	60051.12
1051.00	59927.08
1052.00	59847.50
1053.00	59771.04
1054.00	59732.81
1055.00	59720.33
1056.00	59709.41
1057.00	59795.23
1058.00	59872.46
1059.00	59927.08
1060.00	60062.05
1061.00	60222.76
1062.00	60278.94
1063.00	60239.93
1064.00	60176.73
1065.00	60186.10
1066.00	60183.76
1067.00	60217.30
1068.00	60229.79
1069.00	60274.26
1070.00	60291.42
1071.00	60371.78
1072.00	60404.55
1073.00	60445.90
1074.00	60459.16
1075.00	60529.37
1076.00	60538.74
1077.00	60595.69
1078.00	60670.59
1079.00	60697.11
1080.00	60670.59
1081.00	60595.69
1082.00	60697.89
1083.00	60747.82
1084.00	60817.26
1085.00	60766.55
1086.00	60805.56
1087.00	60847.69
1088.00	60915.56
1089.00	61055.21
1090.00	61066.14
1091.00	61104.37
1092.00	61043.51
1093.00	61027.91
1094.00	61037.27
1095.00	61032.59
1096.00	61056.78
1097.00	61134.01
1098.00	61141.03
1099.00	61235.44
1100.00	61208.91
1101.00	61284.59
1102.00	61311.11
1103.00	61283.81
1104.00	61249.48
1105.00	61213.59
1106.00	61347.78
1107.00	61429.70
1108.00	61512.40
1109.00	61490.55
1110.00	61542.83
1111.00	61520.98
1112.00	61545.17
1113.00	61496.02
1114.00	61418.78
1115.00	61352.46
1116.00	61378.21
1117.00	61501.48
1118.00	61499.92
1119.00	61375.09
1120.00	61371.19
1121.00	61409.42
1122.00	61591.98
1123.00	61623.96
1124.00	61680.14
1125.00	61591.20
1126.00	61577.93
1127.00	61635.67
1128.00	61758.16
1129.00	61766.74
1130.00	61744.89
1131.00	61726.17
1132.00	61741.77
1133.00	61716.81
1134.00	61717.59
1135.00	61688.72
1136.00	61745.67
1137.00	61726.95
1138.00	61872.06
1139.00	61955.54
1140.00	61992.21
1141.00	62032.78
1142.00	61959.44
1143.00	62022.64
1144.00	61974.27
1145.00	62027.32
1146.00	62145.90
1147.00	62130.30
1148.00	62182.57
1149.00	62053.84
1150.00	62011.71
1151.00	61993.77
1152.00	62009.37
1153.00	62053.06
1154.00	61965.68
1155.00	61953.98
1156.00	61982.07
1157.00	62014.05
1158.00	61961.78
1159.00	61900.15
1160.00	61960.22
1161.00	62051.50
1162.00	62106.90
1163.00	62060.86
1164.00	62032.00
1165.00	62108.46
1166.00	62166.19
1167.00	62218.46
1168.00	62212.22
1169.00	62224.70
1170.00	62260.59
1171.00	62229.38
1172.00	62184.13
1173.00	62171.65
1174.00	62186.47
1175.00	62231.72
1176.00	62222.36
1177.00	62199.74
1178.00	62209.10
1179.00	62220.80
1180.00	62322.22
1181.00	62284.00
1182.00	62304.28
1183.00	62219.24
1184.00	62230.94
1185.00	62156.83
1186.00	62239.53
1187.00	62278.53
1188.00	62408.82
1189.00	62407.26
1190.00	62419.75
1191.00	62358.11
1192.00	62157.61
1193.00	62089.73
1194.00	62083.49
1195.00	62248.89
1196.00	62250.45
1197.00	62233.28
1198.00	62207.54
1199.00	62321.44
1200.00	62358.11
1201.00	62433.79
1202.00	62421.31
1203.00	62477.48
1204.00	62405.70
1205.00	62407.26
1206.00	62344.07
1207.00	62444.71
1208.00	62466.56
1209.00	62479.04
1210.00	62510.25
1211.00	62586.71
1212.00	62674.87
1213.00	62615.57
1214.00	62437.69
1215.00	62386.20
1216.00	62323.78
1217.00	62355.77
1218.00	62336.27
1219.00	62386.20
1220.00	62455.64
1221.00	62472.02
1222.00	62531.31
1223.00	62602.31
1224.00	62607.77
1225.00	62571.10
1226.00	62579.68
1227.00	62504.01
1228.00	62435.35
1229.00	62326.91
1230.00	62401.02
1231.00	62559.40
1232.00	62611.67
1233.00	62644.44
1234.00	62593.73
1235.00	62610.11
1236.00	62702.17
1237.00	62727.92
1238.00	62798.91
1239.00	62819.98
1240.00	62823.88
1241.00	62785.65
1242.00	62725.58
1243.00	62646.00
1244.00	62624.93
1245.00	62636.64
1246.00	62758.34
1247.00	62873.03
1248.00	62907.36
1249.00	62964.31
1250.00	62969.77
1251.00	63056.37
1252.00	63151.55
1253.00	63241.28
1254.00	63216.31
1255.00	63061.05
1256.00	62997.86
1257.00	63054.81
1258.00	63184.32
1259.00	63146.09
1260.00	63114.89
1261.00	63079.00
1262.00	63171.06
1263.00	63214.75
1264.00	63199.15
1265.00	63203.83
1266.00	63114.11
1267.00	63193.68
1268.00	63214.75
1269.00	63357.52
1270.00	63350.50
1271.00	63393.41
1272.00	63469.87
1273.00	63508.10
1274.00	63506.54
1275.00	63338.80
1276.00	63320.85
1277.00	63204.61
1278.00	63277.94
1279.00	63344.26
1280.00	63446.46
1281.00	63555.69
1282.00	63680.52
1283.00	63761.65
1284.00	63723.43
1285.00	63703.14
1286.00	63744.49
1287.00	63704.70
1288.00	63529.94
1289.00	63458.94
1290.00	63468.31
1291.00	63600.16
1292.00	63612.64
1293.00	63637.61
1294.00	63617.32
1295.00	63635.27
1296.00	63665.69
1297.00	63613.42
1298.00	63644.63
1299.00	63671.15
1300.00	63749.95
1301.00	63795.98
1302.00	63745.27
1303.00	63695.34
1304.00	63678.17
1305.00	63753.07
1306.00	63793.64
1307.00	63695.34
1308.00	63653.99
1309.00	63586.11
1310.00	63676.61
1311.00	63752.29
1312.00	63976.98
1313.00	64007.41
1314.00	64037.06
1315.00	63973.08
1316.00	63997.27
1317.00	63980.10
1318.00	63962.16
1319.00	64018.33
1320.00	64108.83
1321.00	64246.14
1322.00	64296.08
1323.00	64340.55
1324.00	64336.65
1325.00	64303.10
1326.00	64247.71
1327.00	64200.11
1328.00	64116.64
1329.00	64086.21
1330.00	64017.55
1331.00	64094.79
1332.00	64066.70
1333.00	64154.86
1334.00	64154.86
1335.00	64241.46
1336.00	64186.07
1337.00	64191.53
1338.00	64179.05
1339.00	64275.79
1340.00	64326.50
1341.00	64424.81
1342.00	64441.19
1343.00	64477.86
1344.00	64444.31
1345.00	64370.19
1346.00	64310.90
1347.00	64285.15
1348.00	64260.97
1349.00	64263.31
1350.00	64136.92
1351.00	64161.11
1352.00	64126.78
1353.00	64243.02
1354.00	64237.56
1355.00	64204.80
1356.00	64226.64
1357.00	64280.47
1358.00	64353.81
1359.00	64329.62
1360.00	64329.62
1361.00	64395.94
1362.00	64451.33
1363.00	64461.47
1364.00	64407.64
1365.00	64444.31
1366.00	64401.40
1367.00	64377.22
1368.00	64310.90
1369.00	64337.43
1370.00	64304.66
1371.00	64197.77
1372.00	64198.55
1373.00	64214.94
1374.00	64267.99
1375.00	64261.75
1376.00	64246.93
1377.00	64260.19
1378.00	64317.14
1379.00	64413.10
1380.00	64417.78
1381.00	64368.63
1382.00	64319.48
1383.00	64370.97
1384.00	64382.68
1385.00	64478.64
1386.00	64521.55
1387.00	64576.94
1388.00	64572.26
1389.00	64555.88
1390.00	64637.01
1391.00	64654.96
1392.00	64666.66
1393.00	64603.47
1394.00	64544.17
1395.00	64567.58
1396.00	64528.57
1397.00	64510.63
1398.00	64474.74
1399.00	64493.46
1400.00	64528.57
1401.00	64409.98
1402.00	64397.50
1403.00	64259.41
1404.00	64281.25
1405.00	64171.25
1406.00	64154.86
1407.00	64083.09
1408.00	64062.80
1409.00	64134.58
1410.00	64229.76
1411.00	64303.88
1412.00	64280.47
1413.00	64198.55
1414.00	64155.64
1415.00	64263.31
1416.00	64400.62
1417.00	64438.85
1418.00	64406.86
1419.00	64344.45
1420.00	64409.20
1421.00	64397.50
1422.00	64441.19
1423.00	64352.25
1424.00	64257.85
1425.00	64201.67
1426.00	64136.92
1427.00	64160.33
1428.00	64069.04
1429.00	64064.36
1430.00	64086.21
1431.00	64168.91
1432.00	64254.73
1433.00	64250.05
1434.00	64251.61
1435.00	64205.58
1436.00	64175.15
1437.00	64182.17
1438.00	64168.91
1439.00	64261.75
1440.00	64284.37
1441.00	64360.05
1442.00	64373.31
1443.00	64343.67
1444.00	64334.31
1445.00	64211.04
1446.00	64217.28
1447.00	64154.08
1448.00	64142.38
1449.00	64067.48
1450.00	64071.38
1451.00	64076.07
1452.00	64126.78
1453.00	64162.67
1454.00	64218.06
1455.00	64236.78
1456.00	64184.51
1457.00	64127.56
1458.00	64147.06
1459.00	64182.17
1460.00	64284.37
1461.00	64216.50
1462.00	64125.22
1463.00	63960.60
1464.00	63987.13
1465.00	64028.48
1466.00	63973.08
1467.00	63838.89
1468.00	63754.63
1469.00	63864.64
1470.00	63955.92
1471.00	64011.31
1472.00	63939.53
1473.00	63912.23
1474.00	63914.57
1475.00	63964.50
1476.00	64031.60
1477.00	64140.04
1478.00	64182.17
1479.00	64138.48
1480.00	63957.48
1481.00	63952.02
1482.00	64002.73
1483.00	64104.93
1484.00	64031.60
1485.00	63884.14
1486.00	63697.68
1487.00	63646.97
1488.00	63682.08
1489.00	63705.48
1490.00	63691.44
1491.00	63657.89
1492.00	63694.56
1493.00	63763.21
1494.00	63796.76
1495.00	63834.21
1496.00	63753.07
1497.00	63651.65
1498.00	63610.30
1499.00	63600.16
1500.00	63633.70
1501.00	63586.11
1502.00	63602.50
1503.00	63653.99
1504.00	63767.12
1505.00	63857.62
1506.00	63867.76
1507.00	63828.75
1508.00	63735.91
1509.00	63758.53
1510.00	63774.14
1511.00	63772.58
1512.00	63699.24
1513.00	63613.42
1514.00	63626.68
1515.00	63634.49
1516.00	63608.74
1517.00	63632.14
1518.00	63659.45
1519.00	63710.16
1520.00	63620.44
1521.00	63553.35
1522.00	63497.17
1523.00	63558.81
1524.00	63529.94
1525.00	63597.82
1526.00	63540.86
1527.00	63564.27
1528.00	63480.01
1529.00	63366.88
1530.00	63291.21
1531.00	63295.89
1532.00	63398.09
1533.00	63450.36
1534.00	63486.25
1535.00	63476.11
1536.00	63444.90
1537.00	63490.15
1538.00	63478.45
1539.00	63467.53
1540.00	63343.48
1541.00	63298.23
1542.00	63276.38
1543.00	63265.46
1544.00	63282.62
1545.00	63299.79
1546.00	63362.98
1547.00	63332.56
1548.00	63359.86
1549.00	63381.71
1550.00	63468.31
1551.00	63388.73
1552.00	63342.70
1553.00	63313.83
1554.00	63331.00
1555.00	63264.68
1556.00	63236.59
1557.00	63206.95
1558.00	63223.33
1559.00	63208.51
1560.00	63254.54
1561.00	63333.34
1562.00	63318.51
1563.00	63385.61
1564.00	63318.51
1565.00	63377.03
1566.00	63277.16
1567.00	63290.43
1568.00	63222.55
1569.00	63208.51
1570.00	63129.71
1571.00	63116.45
1572.00	63012.68
1573.00	63015.80
1574.00	62975.23
1575.00	63000.20
1576.00	62955.73
1577.00	62923.74
1578.00	62900.34
1579.00	62901.12
1580.00	62754.44
1581.00	62753.66
1582.00	62735.72
1583.00	62875.37
1584.00	62910.48
1585.00	62918.28
1586.00	62745.86
1587.00	62567.98
1588.00	62581.24
1589.00	62721.68
1590.00	62815.30
1591.00	62682.67
1592.00	62617.13
1593.00	62543.02
1594.00	62608.55
1595.00	62549.26
1596.00	62668.62
1597.00	62709.19
1598.00	62903.46
1599.00	62913.60
1600.00	62851.97
1601.00	62705.29
1602.00	62687.35
1603.00	62583.58
1604.00	62557.84
1605.00	62492.30
1606.00	62563.30
1607.00	62555.50
1608.00	62479.82
1609.00	62397.12
1610.00	62393.22
1611.00	62390.10
1612.00	62495.42
1613.00	62581.24
1614.00	62680.33
1615.00	62676.43
1616.00	62569.54
1617.00	62480.60
1618.00	62447.83
1619.00	62464.22
1620.00	62502.45
1621.00	62466.56
1622.00	62469.68
1623.00	62489.96
1624.00	62632.74
1625.00	62656.14
1626.00	62674.09
1627.00	62574.22
1628.00	62620.25
1629.00	62685.79
1630.00	62734.16
1631.00	62787.21
1632.00	62822.32
1633.00	62770.83
1634.00	62706.07
1635.00	62545.36
1636.00	62442.37
1637.00	62399.46
1638.00	62350.31
1639.00	62390.88
1640.00	62404.14
1641.00	62519.61
1642.00	62606.99
1643.00	62599.97
1644.00	62461.88
1645.00	62416.63
1646.00	62403.36
1647.00	62418.19
1648.00	62303.50
1649.00	62164.63
1650.00	62128.74
1651.00	62095.19
1652.00	62129.52
1653.00	62152.93
1654.00	62094.41
1655.00	62023.42
1656.00	61907.17
1657.00	62026.54
1658.00	62155.27
1659.00	62290.24
1660.00	62406.48
1661.00	62531.31
1662.00	62605.43
1663.00	62546.14
1664.00	62372.16
1665.00	62276.19
1666.00	62184.13
1667.00	62185.69
1668.00	62173.21
1669.00	62198.18
1670.00	62159.17
1671.00	62093.63
1672.00	62068.67
1673.00	62117.82
1674.00	62258.25
1675.00	62294.92
1676.00	62333.15
1677.00	62219.24
1678.00	62136.54
1679.00	61978.17
1680.00	62007.03
1681.00	62003.13
1682.00	62076.47
1683.00	61971.92
1684.00	61881.42
1685.00	61822.91
1686.00	61783.12
1687.00	61830.71
1688.00	61758.94
1689.00	61653.61
1690.00	61557.65
1691.00	61545.95
1692.00	61700.42
1693.00	61853.34
1694.00	61963.34
1695.00	61960.22
1696.00	61896.25
1697.00	61907.95
1698.00	61795.60
1699.00	61746.45
1700.00	61677.02
1701.00	61661.41
1702.00	61624.74
1703.00	61513.96
1704.00	61591.98
1705.00	61516.30
1706.00	61474.95
1707.00	61253.38
1708.00	61166.00
1709.00	61085.64
1710.00	61115.29
1711.00	61180.04
1712.00	61270.54
1713.00	61313.45
1714.00	61333.74
1715.00	61339.20
1716.00	61321.26
1717.00	61284.59
1718.00	61233.10
1719.00	61205.79
1720.00	61148.06
1721.00	61039.61
1722.00	61011.52
1723.00	61016.99
1724.00	61164.44
1725.00	61101.25
1726.00	60950.67
1727.00	60829.74
1728.00	60794.64
1729.00	60895.28
1730.00	60775.13
1731.00	60785.27
1732.00	60807.12
1733.00	60920.24
1734.00	61038.05
1735.00	60958.47
1736.00	60915.56
1737.00	60788.39
1738.00	60764.21
1739.00	60736.12
1740.00	60701.01
1741.00	60657.32
1742.00	60562.14
1743.00	60443.55
1744.00	60491.15
1745.00	60413.13
1746.00	60463.06
1747.00	60255.53
1748.00	60358.52
1749.00	60356.95
1750.00	60415.47
1751.00	60291.42
1752.00	60109.64
1753.00	59981.69
1754.00	59901.33
1755.00	59977.01
1756.00	60027.72
1757.00	60008.22
1758.00	59877.14
1759.00	59806.93
1760.00	59760.90
1761.00	59817.07
1762.00	59880.27
1763.00	59788.98
1764.00	59598.62
1765.00	59424.64
1766.00	59357.55
1767.00	59299.81
1768.00	59338.04
1769.00	59335.70
1770.00	59441.03
1771.00	59345.84
1772.00	59316.98
1773.00	59199.17
1774.00	59162.50
1775.00	59118.03
1776.00	59116.47
1777.00	59113.35
1778.00	59118.81
1779.00	59152.36
1780.00	59016.61
1781.00	58866.81
1782.00	58795.04
1783.00	58831.71
1784.00	58842.63
1785.00	58851.21
1786.00	58784.90
1787.00	58760.71
1788.00	58633.54
1789.00	58624.96
1790.00	58599.21
1791.00	58501.69
1792.00	58513.39
1793.00	58526.66
1794.00	58467.36
1795.00	58391.68
1796.00	58251.25
1797.00	58259.05
1798.00	58225.51
1799.00	58288.70
1800.00	58181.82
1801.00	58014.86
1802.00	57897.83
1803.00	57932.94
1804.00	57940.74
1805.00	57892.37
1806.00	57698.89
1807.00	57552.21
1808.00	57318.94
1809.00	57351.71
1810.00	57286.17
1811.00	57350.15
1812.00	57205.81
1813.00	57056.02
1814.00	56892.96
1815.00	56850.05
1816.00	56821.97
1817.00	56722.88
1818.00	56509.11
1819.00	56332.79
1820.00	56215.77
1821.00	56278.18
1822.00	56390.53
1823.00	56438.90
1824.00	56371.80
1825.00	56301.59
1826.00	56189.24
1827.00	56146.33
1828.00	56037.89
1829.00	56050.37
1830.00	55625.17
1831.00	55533.89
1832.00	55384.88
1833.00	55622.05
1834.00	55363.81
1835.00	55191.39
1836.00	54767.76
1837.00	54717.04
1838.00	54715.48
1839.00	54941.74
1840.00	55017.41
1841.00	54966.70
1842.00	54962.02
1843.00	54777.90
1844.00	54561.01
1845.00	54315.25
1846.00	54034.39
1847.00	53822.18
1848.00	53599.05
1849.00	53489.82
1850.00	53400.10
1851.00	53257.33
1852.00	53358.75
1853.00	53416.49
1854.00	53467.20
1855.00	53201.16
1856.00	52949.16
1857.00	52828.23
1858.00	52879.72
1859.00	52761.14
1860.00	52527.08
1861.00	52235.30
1862.00	52172.88
1863.00	52261.82
1864.00	52264.94
1865.00	52142.45
1866.00	51859.25
1867.00	51746.90
1868.00	51646.26
1869.00	51483.98
1870.00	51253.83
1871.00	51050.20
1872.00	50945.66
1873.00	50818.49
1874.00	50823.17
1875.00	50794.31
1876.00	50844.24
1877.00	50631.25
1878.00	50486.14
1879.00	50135.84
1880.00	49889.30
1881.00	49573.33
1882.00	49326.79
1883.00	49145.79
1884.00	49045.15
1885.00	48892.23
1886.00	49011.60
1887.00	48949.96
1888.00	48878.19
1889.00	48526.33
1890.00	48419.44
1891.00	48394.48
1892.00	48161.20
1893.00	47885.80
1894.00	47835.09
1895.00	47704.80
1896.00	47666.57
1897.00	47444.22
1898.00	47432.52
1899.00	47213.29
1900.00	46919.94
1901.00	46680.42
1902.00	46724.11
1903.00	46555.60
1904.00	46685.11
1905.00	46548.57
1906.00	46497.08
1907.00	46162.39
1908.00	45873.72
1909.00	45608.46
1910.00	45339.30
1911.00	44915.66
1912.00	44534.15
1913.00	44343.01
1914.00	44091.01
1915.00	44230.66
1916.00	44112.08
1917.00	44138.60
1918.00	43832.77
1919.00	43482.47
1920.00	43245.30
1921.00	43094.72
1922.00	42986.28
1923.00	42808.40
1924.00	42745.98
1925.00	42652.36
1926.00	42487.74
1927.00	41969.71
1928.00	41693.52
1929.00	41662.32
1930.00	41610.04
1931.00	41393.93
1932.00	41158.32
1933.00	41231.66
1934.00	41080.30
1935.00	40866.53
1936.00	40447.58
1937.00	40325.09
1938.00	39899.11
1939.00	39771.94
1940.00	39404.48
1941.00	39167.30
1942.00	38820.91
1943.00	38727.28
1944.00	38593.09
1945.00	38436.28
1946.00	38238.89
1947.00	38040.73
1948.00	38025.90
1949.00	37909.66
1950.00	37914.34
1951.00	37542.97
1952.00	37269.91
1953.00	36857.20
1954.00	36763.57
1955.00	36517.04
1956.00	36318.09
1957.00	36030.99
1958.00	35726.72
1959.00	35590.97
1960.00	35291.38
1961.00	35136.12
1962.00	34819.37
1963.00	34646.95
1964.00	34480.77
1965.00	34280.27
1966.00	34128.91
1967.00	33848.83
1968.00	33670.17
1969.00	33257.45
1970.00	33003.89
1971.00	32701.96
1972.00	32694.94
1973.00	32539.69
1974.00	32329.04
1975.00	32012.29
1976.00	31476.30
1977.00	31171.25
1978.00	30990.25
1979.00	31014.44
1980.00	30889.61
1981.00	30628.25
1982.00	30353.63
1983.00	30172.63
1984.00	29901.90
1985.00	29741.97
1986.00	29666.29
1987.00	29502.45
1988.00	29456.42
1989.00	29242.65
1990.00	29269.18
1991.00	28880.65
1992.00	28594.32
1993.00	28222.96
1994.00	28282.25
1995.00	28141.82
1996.00	27922.59
1997.00	27669.03
1998.00	27580.09
1999.00	27466.19
2000.00	27225.11
2001.00	26881.05
2002.00	26714.87
2003.00	26593.17
2004.00	26412.17
2005.00	26164.85
2006.00	25929.23
2007.00	25743.55
2008.00	25526.66
2009.00	25309.77
2010.00	25097.56
2011.00	24915.00
2012.00	24634.92
2013.00	24418.03
2014.00	24119.22
2015.00	23868.78
2016.00	23609.76
2017.00	23436.56
2018.00	23491.18
2019.00	23477.91
2020.00	23455.29
2021.00	23257.12
2022.00	23132.29
2023.00	22901.36
2024.00	22708.66
2025.00	22427.01
2026.00	22221.83
2027.00	22053.31
2028.00	21969.05
2029.00	21789.61
2030.00	21678.82
2031.00	21486.12
2032.00	21375.33
2033.00	21217.74
2034.00	21067.16
2035.00	21022.69
2036.00	20773.81
2037.00	20570.19
2038.00	20223.79
2039.00	20067.75
2040.00	19843.84
2041.00	19784.55
2042.00	19635.53
2043.00	19616.03
2044.00	19563.76
2045.00	19562.98
2046.00	19538.79
2047.00	19459.21
>>>>>End Processed Spectral Data<<<<<
