SpectraSuite Data File
++++++++++++++++++++++++++++++++++++
Date: Thu Nov 16 14:00:06 EST 2017
User: cheriyan
Dark Spectrum Present: No
Reference Spectrum Present: No
Number of Sampled Component Spectra: 1
Spectrometers: USB2+H05261
Integration Time (usec): 100000 (USB2+H05261)
Spectra Averaged: 1 (USB2+H05261)
Boxcar Smoothing: 1 (USB2+H05261)
Correct for Electrical Dark: No (USB2+H05261)
Strobe/Lamp Enabled: No (USB2+H05261)
Correct for Detector Non-linearity: No (USB2+H05261)
Correct for Stray Light: No (USB2+H05261)
Number of Pixels in Processed Spectrum: 2048
>>>>>Begin Processed Spectral Data<<<<<
0.00	381.51
1.00	381.51
2.00	337.04
3.00	302.71
4.00	286.33
5.00	295.69
6.00	290.23
7.00	258.24
8.00	261.36
9.00	245.76
10.00	244.98
11.00	239.51
12.00	243.42
13.00	244.20
14.00	248.88
15.00	256.68
16.00	259.80
17.00	242.64
18.00	241.86
19.00	269.16
20.00	283.20
21.00	291.79
22.00	316.75
23.00	380.73
24.00	524.28
25.00	653.79
26.00	762.23
27.00	782.52
28.00	812.17
29.00	830.89
30.00	855.86
31.00	840.25
32.00	848.05
33.00	872.24
34.00	876.92
35.00	871.46
36.00	873.80
37.00	893.30
38.00	894.08
39.00	880.82
40.00	898.77
41.00	922.17
42.00	955.72
43.00	954.16
44.00	954.16
45.00	951.04
46.00	948.70
47.00	976.78
48.00	947.14
49.00	959.62
50.00	932.31
51.00	979.90
52.00	990.05
53.00	1014.23
54.00	989.27
55.00	962.74
56.00	950.26
57.00	963.52
58.00	976.78
59.00	1039.98
60.00	1036.08
61.00	1035.30
62.00	986.15
63.00	1000.19
64.00	1030.62
65.00	1061.04
66.00	1061.04
67.00	1038.42
68.00	1033.74
69.00	1049.34
70.00	1084.45
71.00	1078.21
72.00	1054.02
73.00	1057.92
74.00	1050.12
75.00	1086.01
76.00	1062.60
77.00	1059.48
78.00	1051.68
79.00	1071.19
80.00	1095.37
81.00	1089.91
82.00	1082.89
83.00	1076.65
84.00	1080.55
85.00	1100.05
86.00	1122.68
87.00	1149.98
88.00	1138.28
89.00	1132.04
90.00	1114.88
91.00	1147.64
92.00	1163.25
93.00	1172.61
94.00	1187.43
95.00	1181.97
96.00	1197.57
97.00	1178.07
98.00	1185.87
99.00	1192.11
100.00	1190.55
101.00	1199.13
102.00	1200.69
103.00	1196.79
104.00	1191.33
105.00	1248.29
106.00	1278.71
107.00	1303.68
108.00	1294.32
109.00	1295.88
110.00	1260.77
111.00	1243.60
112.00	1228.78
113.00	1283.39
114.00	1284.95
115.00	1323.96
116.00	1338.01
117.00	1351.27
118.00	1331.76
119.00	1345.03
120.00	1351.27
121.00	1383.26
122.00	1388.72
123.00	1370.77
124.00	1393.40
125.00	1391.06
126.00	1405.88
127.00	1401.98
128.00	1375.45
129.00	1388.72
130.00	1377.80
131.00	1391.06
132.00	1440.99
133.00	1455.03
134.00	1475.32
135.00	1459.71
136.00	1483.12
137.00	1484.68
138.00	1479.22
139.00	1482.34
140.00	1482.34
141.00	1492.48
142.00	1496.38
143.00	1511.21
144.00	1528.37
145.00	1551.78
146.00	1580.64
147.00	1557.24
148.00	1554.12
149.00	1584.54
150.00	1677.38
151.00	1681.28
152.00	1668.80
153.00	1609.51
154.00	1642.28
155.00	1657.10
156.00	1670.36
157.00	1681.28
158.00	1675.82
159.00	1724.97
160.00	1701.57
161.00	1731.22
162.00	1723.41
163.00	1734.34
164.00	1709.37
165.00	1707.03
166.00	1754.62
167.00	1785.05
168.00	1797.53
169.00	1774.13
170.00	1754.62
171.00	1779.59
172.00	1786.61
173.00	1831.86
174.00	1817.04
175.00	1819.38
176.00	1814.70
177.00	1848.24
178.00	1891.15
179.00	1910.66
180.00	1941.08
181.00	1898.17
182.00	1896.61
183.00	1840.44
184.00	1847.46
185.00	1873.99
186.00	1949.67
187.00	1994.14
188.00	1997.26
189.00	1983.21
190.00	1988.68
191.00	2000.38
192.00	2008.18
193.00	2012.86
194.00	2010.52
195.00	2019.88
196.00	2088.54
197.00	2147.05
198.00	2154.85
199.00	2122.09
200.00	2101.02
201.00	2118.18
202.00	2144.71
203.00	2205.56
204.00	2246.91
205.00	2312.45
206.00	2283.58
207.00	2275.78
208.00	2266.42
209.00	2229.75
210.00	2234.43
211.00	2212.59
212.00	2308.55
213.00	2308.55
214.00	2315.57
215.00	2291.38
216.00	2314.01
217.00	2334.29
218.00	2338.98
219.00	2356.14
220.00	2374.08
221.00	2422.45
222.00	2434.16
223.00	2431.82
224.00	2434.16
225.00	2470.05
226.00	2483.31
227.00	2497.35
228.00	2477.85
229.00	2483.31
230.00	2476.29
231.00	2500.47
232.00	2544.94
233.00	2561.33
234.00	2541.04
235.00	2548.84
236.00	2598.77
237.00	2653.39
238.00	2682.25
239.00	2654.95
240.00	2673.67
241.00	2703.32
242.00	2752.47
243.00	2756.37
244.00	2757.93
245.00	2765.73
246.00	2778.22
247.00	2819.57
248.00	2861.69
249.00	2916.31
250.00	2890.56
251.00	2865.60
252.00	2871.06
253.00	2880.42
254.00	2949.86
255.00	2999.01
256.00	3028.65
257.00	3021.63
258.00	3020.85
259.00	3051.28
260.00	3107.45
261.00	3101.99
262.00	3126.96
263.00	3134.76
264.00	3212.78
265.00	3270.51
266.00	3261.93
267.00	3247.10
268.00	3269.73
269.00	3291.57
270.00	3308.74
271.00	3284.55
272.00	3363.35
273.00	3389.10
274.00	3406.26
275.00	3369.59
276.00	3380.51
277.00	3388.32
278.00	3399.24
279.00	3453.07
280.00	3444.49
281.00	3467.11
282.00	3466.33
283.00	3563.86
284.00	3602.86
285.00	3586.48
286.00	3570.10
287.00	3583.36
288.00	3623.15
289.00	3644.21
290.00	3641.09
291.00	3678.54
292.00	3719.89
293.00	3737.06
294.00	3736.28
295.00	3750.32
296.00	3793.23
297.00	3792.45
298.00	3771.38
299.00	3734.71
300.00	3723.79
301.00	3699.61
302.00	3717.55
303.00	3751.10
304.00	3826.78
305.00	3851.74
306.00	3935.22
307.00	3956.29
308.00	3984.37
309.00	3946.92
310.00	3981.25
311.00	3980.47
312.00	3962.53
313.00	3907.91
314.00	3941.46
315.00	3920.40
316.00	3971.89
317.00	3980.47
318.00	4054.59
319.00	4032.74
320.00	4049.13
321.00	4044.45
322.00	4044.45
323.00	4070.19
324.00	4112.32
325.00	4195.80
326.00	4245.73
327.00	4292.54
328.00	4309.71
329.00	4280.06
330.00	4305.03
331.00	4304.25
332.00	4302.68
333.00	4258.99
334.00	4269.92
335.00	4377.58
336.00	4447.02
337.00	4503.19
338.00	4475.88
339.00	4471.98
340.00	4482.91
341.00	4536.74
342.00	4589.01
343.00	4571.07
344.00	4629.58
345.00	4625.68
346.00	4668.59
347.00	4620.22
348.00	4637.38
349.00	4691.99
350.00	4757.53
351.00	4814.48
352.00	4825.40
353.00	4836.33
354.00	4802.00
355.00	4812.92
356.00	4780.93
357.00	4792.64
358.00	4772.35
359.00	4783.27
360.00	4873.78
361.00	4975.20
362.00	5036.05
363.00	5001.72
364.00	4990.80
365.00	4975.98
366.00	5027.47
367.00	5068.82
368.00	5153.86
369.00	5169.46
370.00	5188.19
371.00	5133.58
372.00	5121.87
373.00	5093.01
374.00	5150.74
375.00	5295.85
376.00	5359.05
377.00	5426.92
378.00	5391.81
379.00	5437.06
380.00	5444.87
381.00	5468.27
382.00	5495.58
383.00	5553.31
384.00	5596.22
385.00	5641.47
386.00	5717.15
387.00	5756.16
388.00	5807.65
389.00	5822.47
390.00	5866.94
391.00	5833.40
392.00	5846.66
393.00	5907.51
394.00	6058.09
395.00	6083.83
396.00	6132.98
397.00	6140.01
398.00	6176.67
399.00	6219.58
400.00	6199.30
401.00	6295.26
402.00	6326.47
403.00	6419.31
404.00	6447.40
405.00	6470.02
406.00	6511.37
407.00	6544.14
408.00	6445.84
409.00	6367.82
410.00	6399.02
411.00	6548.04
412.00	6615.13
413.00	6524.63
414.00	6526.97
415.00	6571.44
416.00	6638.54
417.00	6605.77
418.00	6597.19
419.00	6598.75
420.00	6632.30
421.00	6690.81
422.00	6685.35
423.00	6734.50
424.00	6668.19
425.00	6796.92
426.00	6758.69
427.00	6856.21
428.00	6792.23
429.00	6845.29
430.00	6798.48
431.00	6821.10
432.00	6828.12
433.00	6882.74
434.00	6882.74
435.00	6898.34
436.00	6947.49
437.00	6973.24
438.00	6966.21
439.00	6902.24
440.00	6988.06
441.00	7105.87
442.00	7220.55
443.00	7296.23
444.00	7289.21
445.00	7279.85
446.00	7297.01
447.00	7395.31
448.00	7467.87
449.00	7414.82
450.00	7437.44
451.00	7520.14
452.00	7644.19
453.00	7608.30
454.00	7587.24
455.00	7485.03
456.00	7538.87
457.00	7586.46
458.00	7659.01
459.00	7657.45
460.00	7686.32
461.00	7737.81
462.00	7788.52
463.00	7767.46
464.00	7813.49
465.00	7838.45
466.00	7877.46
467.00	7882.14
468.00	7891.51
469.00	7925.05
470.00	7952.36
471.00	7989.03
472.00	8003.85
473.00	8044.42
474.00	8165.35
475.00	8207.48
476.00	8336.99
477.00	8399.40
478.00	8549.98
479.00	8570.26
480.00	8528.91
481.00	8478.20
482.00	8517.99
483.00	8501.61
484.00	8625.65
485.00	8667.78
486.00	8735.66
487.00	8709.13
488.00	8713.81
489.00	8809.00
490.00	8862.05
491.00	8867.51
492.00	8865.95
493.00	8916.66
494.00	8975.95
495.00	8966.59
496.00	8977.51
497.00	9032.91
498.00	9124.97
499.00	9161.64
500.00	9142.13
501.00	9176.46
502.00	9252.14
503.00	9380.87
504.00	9454.98
505.00	9468.25
506.00	9436.26
507.00	9501.01
508.00	9577.47
509.00	9628.18
510.00	9631.30
511.00	9651.59
512.00	9728.05
513.00	9745.99
514.00	9819.33
515.00	9846.63
516.00	9865.36
517.00	9853.66
518.00	9866.92
519.00	9887.98
520.00	9946.50
521.00	9902.03
522.00	9980.82
523.00	9966.78
524.00	10075.23
525.00	10075.23
526.00	10103.31
527.00	10161.05
528.00	10225.80
529.00	10293.68
530.00	10324.88
531.00	10295.24
532.00	10284.31
533.00	10218.00
534.00	10270.27
535.00	10287.43
536.00	10364.67
537.00	10434.11
538.00	10462.19
539.00	10481.70
540.00	10457.51
541.00	10533.97
542.00	10569.08
543.00	10667.38
544.00	10716.53
545.00	10842.14
546.00	10865.55
547.00	10906.90
548.00	10984.13
549.00	11074.63
550.00	11105.84
551.00	11130.03
552.00	11210.39
553.00	11272.80
554.00	11315.71
555.00	11301.67
556.00	11372.66
557.00	11451.46
558.00	11593.45
559.00	11770.55
560.00	11776.80
561.00	11814.24
562.00	11742.47
563.00	11838.43
564.00	11884.46
565.00	12029.57
566.00	12237.10
567.00	12250.36
568.00	12268.31
569.00	12132.56
570.00	12272.99
571.00	12449.31
572.00	12485.20
573.00	12435.27
574.00	12428.24
575.00	12577.26
576.00	12830.82
577.00	12886.21
578.00	13043.81
579.00	13058.63
580.00	13191.26
581.00	13185.80
582.00	13298.14
583.00	13333.25
584.00	13524.40
585.00	13635.18
586.00	13735.04
587.00	13591.49
588.00	13534.54
589.00	13566.53
590.00	13853.63
591.00	14040.09
592.00	14252.30
593.00	14409.90
594.00	14603.38
595.00	14723.53
596.00	14811.69
597.00	14958.36
598.00	15072.27
599.00	15177.59
600.00	15227.53
601.00	15247.81
602.00	15364.84
603.00	15373.42
604.00	15651.16
605.00	15891.46
606.00	16080.26
607.00	16092.74
608.00	16081.04
609.00	16197.29
610.00	16315.09
611.00	16386.09
612.00	16548.37
613.00	16739.51
614.00	16833.91
615.00	16971.22
616.00	17028.18
617.00	17202.94
618.00	17292.66
619.00	17438.55
620.00	17674.95
621.00	17849.71
622.00	18021.34
623.00	18232.77
624.00	18381.01
625.00	18505.06
626.00	18520.66
627.00	18494.91
628.00	18641.59
629.00	18873.30
630.00	19308.64
631.00	19399.92
632.00	19391.34
633.00	19552.84
634.00	19814.98
635.00	20016.26
636.00	20103.64
637.00	20247.97
638.00	20421.17
639.00	20515.58
640.00	20736.37
641.00	20934.53
642.00	21119.43
643.00	21227.88
644.00	21434.63
645.00	21510.30
646.00	21472.07
647.00	21483.00
648.00	21645.27
649.00	22032.24
650.00	22235.87
651.00	22466.80
652.00	22448.86
653.00	22576.81
654.00	22772.63
655.00	23025.41
656.00	23226.70
657.00	23294.57
658.00	23474.01
659.00	23660.48
660.00	23858.64
661.00	23982.69
662.00	24160.57
663.00	24317.39
664.00	24549.10
665.00	24679.39
666.00	24865.07
667.00	24916.56
668.00	25046.07
669.00	25160.76
670.00	25234.10
671.00	25417.44
672.00	25486.09
673.00	25738.87
674.00	25820.01
675.00	26043.92
676.00	26163.29
677.00	26345.07
678.00	26483.16
679.00	26745.30
680.00	26968.43
681.00	27170.50
682.00	27374.13
683.00	27549.67
684.00	27721.30
685.00	27729.11
686.00	27920.25
687.00	28098.13
688.00	28481.98
689.00	28553.76
690.00	28693.41
691.00	28724.61
692.00	28946.19
693.00	29125.63
694.00	29339.40
695.00	29551.60
696.00	29824.67
697.00	29908.15
698.00	30068.08
699.00	30161.70
700.00	30358.31
701.00	30490.94
702.00	30431.65
703.00	30515.12
704.00	30640.73
705.00	31074.51
706.00	31394.39
707.00	31702.56
708.00	31849.23
709.00	32034.13
710.00	32133.21
711.00	32277.55
712.00	32319.68
713.00	32364.93
714.00	32274.43
715.00	32456.99
716.00	32624.73
717.00	32985.95
718.00	32883.75
719.00	32969.57
720.00	32969.57
721.00	33152.91
722.00	33152.91
723.00	33232.49
724.00	33420.51
725.00	33557.82
726.00	33831.66
727.00	33962.73
728.00	34073.52
729.00	34163.24
730.00	34293.53
731.00	34501.84
732.00	34547.87
733.00	34611.84
734.00	34588.44
735.00	34598.58
736.00	34653.97
737.00	34894.27
738.00	35136.90
739.00	35324.93
740.00	35356.13
741.00	35600.33
742.00	35632.32
743.00	35860.13
744.00	35844.52
745.00	36109.78
746.00	36165.18
747.00	36373.49
748.00	36449.16
749.00	36777.62
750.00	36887.62
751.00	36865.00
752.00	37014.01
753.00	37022.59
754.00	37368.21
755.00	37486.02
756.00	37802.77
757.00	37771.57
758.00	37795.75
759.00	37826.18
760.00	37950.23
761.00	38114.06
762.00	38196.76
763.00	38400.39
764.00	38362.16
765.00	38472.95
766.00	38643.02
767.00	38863.04
768.00	38934.03
769.00	39193.05
770.00	39360.79
771.00	39669.74
772.00	39734.49
773.00	39789.89
774.00	39789.11
775.00	39798.47
776.00	39957.63
777.00	40052.81
778.00	40257.99
779.00	40332.89
780.00	40545.88
781.00	40614.54
782.00	40829.87
783.00	40874.34
784.00	40879.02
785.00	40882.14
786.00	41159.10
787.00	41576.50
788.00	41814.45
789.00	41912.75
790.00	41815.23
791.00	42050.06
792.00	42059.43
793.00	42231.85
794.00	42237.31
795.00	42327.03
796.00	42512.71
797.00	42611.79
798.00	42956.63
799.00	43007.34
800.00	43231.26
801.00	43203.95
802.00	43433.32
803.00	43429.42
804.00	43588.58
805.00	43852.28
806.00	44069.17
807.00	44240.03
808.00	44127.68
809.00	44229.10
810.00	44328.97
811.00	44550.54
812.00	44651.18
813.00	44713.59
814.00	44843.88
815.00	45094.32
816.00	45354.12
817.00	45384.55
818.00	45294.83
819.00	45316.67
820.00	45376.75
821.00	45581.15
822.00	45645.13
823.00	45904.93
824.00	45856.56
825.00	46041.46
826.00	45918.97
827.00	46183.45
828.00	46211.54
829.00	46300.48
830.00	46395.66
831.00	46429.21
832.00	46632.05
833.00	46590.70
834.00	46644.54
835.00	46719.43
836.00	46880.93
837.00	47157.11
838.00	47342.80
839.00	47451.24
840.00	47620.54
841.00	47886.58
842.00	48216.60
843.00	48435.05
844.00	48597.32
845.00	48745.56
846.00	48674.56
847.00	48739.32
848.00	48711.23
849.00	48975.71
850.00	48869.61
851.00	48927.34
852.00	48797.83
853.00	48946.06
854.00	49087.28
855.00	49258.91
856.00	49230.83
857.00	49266.72
858.00	49309.63
859.00	49549.92
860.00	49559.28
861.00	49676.31
862.00	49757.45
863.00	49859.65
864.00	49922.85
865.00	49918.95
866.00	49949.37
867.00	49911.92
868.00	49955.61
869.00	50227.90
870.00	50515.78
871.00	50777.92
872.00	50715.51
873.00	50815.37
874.00	50858.28
875.00	50937.08
876.00	50868.42
877.00	50830.19
878.00	50898.85
879.00	51072.83
880.00	51217.94
881.00	51443.41
882.00	51346.67
883.00	51356.03
884.00	51272.56
885.00	51332.63
886.00	51381.78
887.00	51393.48
888.00	51478.52
889.00	51491.79
890.00	51491.79
891.00	51488.66
892.00	51562.78
893.00	51591.65
894.00	51647.82
895.00	51667.33
896.00	51877.97
897.00	51880.31
898.00	51984.08
899.00	51909.96
900.00	52094.86
901.00	52157.28
902.00	52436.58
903.00	52511.48
904.00	52766.60
905.00	52974.12
906.00	53115.34
907.00	52985.83
908.00	52754.11
909.00	52915.61
910.00	52989.73
911.00	53127.04
912.00	52951.50
913.00	53122.36
914.00	53065.41
915.00	53094.27
916.00	52962.42
917.00	53000.65
918.00	53049.80
919.00	53002.21
920.00	52970.22
921.00	53036.54
922.00	53286.98
923.00	53425.07
924.00	53432.09
925.00	53431.31
926.00	53530.39
927.00	53603.73
928.00	53664.58
929.00	53806.58
930.00	53833.10
931.00	53872.89
932.00	53932.96
933.00	54035.17
934.00	54161.56
935.00	54091.34
936.00	54216.95
937.00	54213.05
938.00	54266.10
939.00	54309.79
940.00	54423.70
941.00	54437.74
942.00	54461.93
943.00	54374.55
944.00	54493.91
945.00	54514.20
946.00	54666.33
947.00	54619.52
948.00	54742.79
949.00	54795.06
950.00	54891.02
951.00	54816.91
952.00	54706.12
953.00	54827.05
954.00	54958.90
955.00	55112.59
956.00	55066.56
957.00	55125.08
958.00	55257.71
959.00	55420.76
960.00	55326.36
961.00	55238.20
962.00	55277.21
963.00	55526.09
964.00	55682.12
965.00	55742.98
966.00	55762.48
967.00	55874.05
968.00	55844.40
969.00	55890.43
970.00	55959.87
971.00	56050.37
972.00	56113.56
973.00	56039.45
974.00	56143.99
975.00	56253.22
976.00	56341.38
977.00	56367.90
978.00	56230.59
979.00	56249.31
980.00	56232.15
981.00	56404.57
982.00	56385.07
983.00	56387.41
984.00	56449.04
985.00	56458.40
986.00	56445.14
987.00	56218.11
988.00	56278.96
989.00	56272.72
990.00	56566.85
991.00	56654.23
992.00	56785.30
993.00	56701.82
994.00	56821.19
995.00	57024.03
996.00	57238.58
997.00	57410.22
998.00	57496.82
999.00	57532.71
1000.00	57432.85
1001.00	57340.78
1002.00	57233.90
1003.00	57153.54
1004.00	57247.94
1005.00	57304.90
1006.00	57387.60
1007.00	57317.38
1008.00	57452.35
1009.00	57366.53
1010.00	57372.77
1011.00	57251.84
1012.00	57464.05
1013.00	57510.08
1014.00	57623.21
1015.00	57592.78
1016.00	57685.62
1017.00	57788.61
1018.00	57896.27
1019.00	57987.55
1020.00	57970.39
1021.00	57994.57
1022.00	57954.00
1023.00	57919.68
1024.00	57869.75
1025.00	57946.98
1026.00	58084.29
1027.00	58168.55
1028.00	58336.29
1029.00	58252.03
1030.00	58328.49
1031.00	58406.51
1032.00	58614.04
1033.00	58698.30
1034.00	58587.51
1035.00	58585.17
1036.00	58624.18
1037.00	58584.39
1038.00	58540.70
1039.00	58458.00
1040.00	58498.57
1041.00	58606.23
1042.00	58631.20
1043.00	58755.25
1044.00	58862.13
1045.00	59093.07
1046.00	59187.47
1047.00	59186.69
1048.00	59142.22
1049.00	59088.38
1050.00	59129.73
1051.00	59175.76
1052.00	59260.80
1053.00	59239.74
1054.00	59147.68
1055.00	59072.78
1056.00	59029.09
1057.00	59038.45
1058.00	59082.14
1059.00	59206.97
1060.00	59307.61
1061.00	59387.19
1062.00	59460.53
1063.00	59525.28
1064.00	59572.88
1065.00	59533.87
1066.00	59558.83
1067.00	59612.66
1068.00	59656.35
1069.00	59757.00
1070.00	59761.68
1071.00	59784.30
1072.00	59735.15
1073.00	59814.73
1074.00	59898.21
1075.00	59927.86
1076.00	59858.42
1077.00	59838.14
1078.00	59966.09
1079.00	60108.86
1080.00	60118.22
1081.00	60104.96
1082.00	60072.97
1083.00	60151.77
1084.00	60181.41
1085.00	60150.21
1086.00	60147.87
1087.00	60164.25
1088.00	60224.32
1089.00	60346.81
1090.00	60395.18
1091.00	60500.51
1092.00	60483.34
1093.00	60498.17
1094.00	60488.02
1095.00	60441.99
1096.00	60424.83
1097.00	60393.62
1098.00	60325.75
1099.00	60390.50
1100.00	60458.38
1101.00	60588.67
1102.00	60585.55
1103.00	60537.18
1104.00	60542.64
1105.00	60549.66
1106.00	60573.06
1107.00	60622.22
1108.00	60650.30
1109.00	60759.53
1110.00	60794.64
1111.00	60825.84
1112.00	60798.54
1113.00	60840.67
1114.00	60766.55
1115.00	60776.69
1116.00	60683.07
1117.00	60759.53
1118.00	60715.84
1119.00	60737.68
1120.00	60724.42
1121.00	60775.13
1122.00	60812.58
1123.00	60778.25
1124.00	60812.58
1125.00	60850.81
1126.00	60922.58
1127.00	60967.83
1128.00	61058.34
1129.00	61068.48
1130.00	61105.93
1131.00	61089.54
1132.00	61123.87
1133.00	61055.99
1134.00	60990.46
1135.00	60975.64
1136.00	61027.13
1137.00	61098.12
1138.00	61233.88
1139.00	61276.01
1140.00	61256.50
1141.00	61208.13
1142.00	61266.64
1143.00	61329.84
1144.00	61350.90
1145.00	61350.90
1146.00	61463.25
1147.00	61514.74
1148.00	61524.88
1149.00	61454.67
1150.00	61396.93
1151.00	61310.33
1152.00	61204.23
1153.00	61244.02
1154.00	61226.85
1155.00	61272.10
1156.00	61302.53
1157.00	61399.27
1158.00	61453.11
1159.00	61415.66
1160.00	61401.61
1161.00	61325.94
1162.00	61336.08
1163.00	61369.63
1164.00	61449.20
1165.00	61527.22
1166.00	61559.99
1167.00	61624.74
1168.00	61609.14
1169.00	61559.99
1170.00	61580.27
1171.00	61588.86
1172.00	61597.44
1173.00	61520.20
1174.00	61501.48
1175.00	61535.02
1176.00	61609.92
1177.00	61636.45
1178.00	61620.06
1179.00	61626.31
1180.00	61558.43
1181.00	61545.17
1182.00	61462.47
1183.00	61426.58
1184.00	61478.85
1185.00	61553.75
1186.00	61672.34
1187.00	61712.91
1188.00	61755.82
1189.00	61744.89
1190.00	61761.28
1191.00	61721.49
1192.00	61558.43
1193.00	61422.68
1194.00	61340.76
1195.00	61516.30
1196.00	61517.08
1197.00	61556.09
1198.00	61597.44
1199.00	61695.74
1200.00	61717.59
1201.00	61736.31
1202.00	61790.14
1203.00	61795.60
1204.00	61694.18
1205.00	61674.68
1206.00	61711.34
1207.00	61797.94
1208.00	61808.09
1209.00	61934.48
1210.00	61964.90
1211.00	61995.33
1212.00	61971.92
1213.00	61960.22
1214.00	61885.32
1215.00	61833.05
1216.00	61805.75
1217.00	61790.92
1218.00	61708.22
1219.00	61775.32
1220.00	61845.54
1221.00	61833.05
1222.00	61785.46
1223.00	61819.01
1224.00	61932.14
1225.00	61893.91
1226.00	61895.47
1227.00	61878.30
1228.00	61918.09
1229.00	61887.67
1230.00	61846.32
1231.00	61918.87
1232.00	61969.58
1233.00	62089.73
1234.00	62066.33
1235.00	62120.94
1236.00	62103.77
1237.00	62117.82
1238.00	62092.85
1239.00	62194.28
1240.00	62298.82
1241.00	62340.17
1242.00	62317.54
1243.00	62293.36
1244.00	62201.30
1245.00	62192.72
1246.00	62151.37
1247.00	62298.04
1248.00	62365.13
1249.00	62412.73
1250.00	62447.83
1251.00	62525.07
1252.00	62541.45
1253.00	62571.10
1254.00	62542.23
1255.00	62551.60
1256.00	62517.27
1257.00	62461.10
1258.00	62525.07
1259.00	62415.07
1260.00	62404.14
1261.00	62377.62
1262.00	62509.47
1263.00	62619.47
1264.00	62689.69
1265.00	62685.01
1266.00	62643.66
1267.00	62563.30
1268.00	62651.46
1269.00	62648.34
1270.00	62710.75
1271.00	62705.29
1272.00	62839.48
1273.00	62851.97
1274.00	62827.00
1275.00	62729.48
1276.00	62702.95
1277.00	62682.67
1278.00	62759.12
1279.00	62911.26
1280.00	62956.51
1281.00	62929.20
1282.00	62873.03
1283.00	62923.74
1284.00	62919.06
1285.00	62968.21
1286.00	62957.29
1287.00	62946.37
1288.00	62919.06
1289.00	62932.32
1290.00	62927.64
1291.00	62913.60
1292.00	62924.52
1293.00	62944.81
1294.00	62961.97
1295.00	63033.75
1296.00	63112.55
1297.00	63057.93
1298.00	63022.04
1299.00	62995.52
1300.00	63116.45
1301.00	63178.86
1302.00	63184.32
1303.00	63183.54
1304.00	63192.90
1305.00	63243.62
1306.00	63210.07
1307.00	63075.10
1308.00	63023.61
1309.00	63011.12
1310.00	63111.77
1311.00	63105.52
1312.00	63261.56
1313.00	63288.87
1314.00	63401.99
1315.00	63372.34
1316.00	63369.22
1317.00	63359.08
1318.00	63363.76
1319.00	63417.60
1320.00	63515.12
1321.00	63512.00
1322.00	63551.79
1323.00	63506.54
1324.00	63624.34
1325.00	63630.58
1326.00	63622.00
1327.00	63561.93
1328.00	63521.36
1329.00	63535.40
1330.00	63492.49
1331.00	63517.46
1332.00	63435.54
1333.00	63438.66
1334.00	63482.35
1335.00	63572.07
1336.00	63604.84
1337.00	63610.30
1338.00	63561.15
1339.00	63595.48
1340.00	63673.49
1341.00	63830.31
1342.00	63821.73
1343.00	63767.12
1344.00	63696.12
1345.00	63641.51
1346.00	63565.05
1347.00	63623.56
1348.00	63683.64
1349.00	63755.41
1350.00	63667.25
1351.00	63662.57
1352.00	63561.93
1353.00	63623.56
1354.00	63604.84
1355.00	63680.52
1356.00	63651.65
1357.00	63735.91
1358.00	63808.46
1359.00	63863.86
1360.00	63862.30
1361.00	63852.94
1362.00	63877.12
1363.00	63881.80
1364.00	63882.58
1365.00	63937.19
1366.00	63912.23
1367.00	63846.69
1368.00	63723.43
1369.00	63656.33
1370.00	63618.88
1371.00	63543.98
1372.00	63590.80
1373.00	63644.63
1374.00	63657.11
1375.00	63620.44
1376.00	63607.96
1377.00	63630.58
1378.00	63724.99
1379.00	63778.82
1380.00	63838.11
1381.00	63816.27
1382.00	63853.72
1383.00	63853.72
1384.00	63859.96
1385.00	63859.18
1386.00	63865.42
1387.00	63895.84
1388.00	63919.25
1389.00	63951.24
1390.00	63980.10
1391.00	63933.29
1392.00	63994.15
1393.00	64009.75
1394.00	64065.92
1395.00	63995.71
1396.00	63862.30
1397.00	63746.05
1398.00	63702.36
1399.00	63804.56
1400.00	63876.34
1401.00	63787.40
1402.00	63747.61
1403.00	63713.28
1404.00	63749.17
1405.00	63652.43
1406.00	63579.87
1407.00	63586.11
1408.00	63568.17
1409.00	63533.06
1410.00	63526.82
1411.00	63537.74
1412.00	63551.01
1413.00	63579.09
1414.00	63596.26
1415.00	63735.13
1416.00	63795.98
1417.00	63802.22
1418.00	63759.31
1419.00	63749.95
1420.00	63887.26
1421.00	63834.21
1422.00	63791.30
1423.00	63682.86
1424.00	63629.80
1425.00	63575.97
1426.00	63530.72
1427.00	63541.64
1428.00	63518.24
1429.00	63449.58
1430.00	63435.54
1431.00	63495.61
1432.00	63582.21
1433.00	63570.51
1434.00	63551.01
1435.00	63503.42
1436.00	63455.04
1437.00	63504.20
1438.00	63532.28
1439.00	63700.80
1440.00	63710.16
1441.00	63786.62
1442.00	63707.82
1443.00	63590.01
1444.00	63521.36
1445.00	63546.32
1446.00	63707.82
1447.00	63680.52
1448.00	63655.55
1449.00	63561.93
1450.00	63509.66
1451.00	63522.14
1452.00	63536.18
1453.00	63694.56
1454.00	63728.11
1455.00	63775.70
1456.00	63682.08
1457.00	63648.53
1458.00	63646.97
1459.00	63622.00
1460.00	63607.96
1461.00	63470.65
1462.00	63411.35
1463.00	63394.19
1464.00	63470.65
1465.00	63493.27
1466.00	63401.21
1467.00	63266.24
1468.00	63221.77
1469.00	63353.62
1470.00	63440.22
1471.00	63432.42
1472.00	63269.36
1473.00	63221.77
1474.00	63387.17
1475.00	63540.86
1476.00	63599.38
1477.00	63487.81
1478.00	63423.84
1479.00	63372.34
1480.00	63285.75
1481.00	63200.71
1482.00	63236.59
1483.00	63341.14
1484.00	63433.98
1485.00	63325.53
1486.00	63196.80
1487.00	63080.56
1488.00	63054.81
1489.00	63077.44
1490.00	63122.69
1491.00	63193.68
1492.00	63208.51
1493.00	63152.33
1494.00	63120.35
1495.00	63193.68
1496.00	63228.79
1497.00	63123.47
1498.00	63088.36
1499.00	63045.45
1500.00	63178.86
1501.00	63087.58
1502.00	63150.77
1503.00	63090.70
1504.00	63134.39
1505.00	63196.02
1506.00	63270.14
1507.00	63346.60
1508.00	63239.71
1509.00	63164.82
1510.00	63132.05
1511.00	63153.11
1512.00	63174.18
1513.00	63057.93
1514.00	62950.27
1515.00	62947.15
1516.00	62866.79
1517.00	62958.85
1518.00	62944.03
1519.00	63059.49
1520.00	63025.17
1521.00	63000.98
1522.00	62955.73
1523.00	62965.09
1524.00	62994.74
1525.00	63015.80
1526.00	63052.47
1527.00	62976.01
1528.00	62908.92
1529.00	62768.49
1530.00	62728.70
1531.00	62719.34
1532.00	62839.48
1533.00	62958.07
1534.00	63015.02
1535.00	62898.78
1536.00	62757.56
1537.00	62645.22
1538.00	62609.33
1539.00	62557.84
1540.00	62638.20
1541.00	62618.69
1542.00	62701.39
1543.00	62706.07
1544.00	62829.34
1545.00	62845.72
1546.00	62880.83
1547.00	62830.12
1548.00	62779.41
1549.00	62748.20
1550.00	62779.41
1551.00	62781.75
1552.00	62788.77
1553.00	62793.45
1554.00	62830.12
1555.00	62769.27
1556.00	62688.91
1557.00	62552.38
1558.00	62603.87
1559.00	62668.62
1560.00	62878.49
1561.00	62862.89
1562.00	62877.71
1563.00	62723.24
1564.00	62653.02
1565.00	62608.55
1566.00	62660.82
1567.00	62742.74
1568.00	62709.19
1569.00	62696.71
1570.00	62625.71
1571.00	62486.06
1572.00	62267.61
1573.00	62213.00
1574.00	62272.29
1575.00	62386.98
1576.00	62344.85
1577.00	62262.93
1578.00	62317.54
1579.00	62298.82
1580.00	62298.04
1581.00	62161.51
1582.00	62237.97
1583.00	62334.71
1584.00	62469.68
1585.00	62441.59
1586.00	62351.87
1587.00	62135.76
1588.00	62103.77
1589.00	62100.65
1590.00	62184.13
1591.00	62085.83
1592.00	62073.35
1593.00	62081.15
1594.00	62132.64
1595.00	62018.74
1596.00	62071.79
1597.00	62071.79
1598.00	62155.27
1599.00	62106.90
1600.00	62042.14
1601.00	62024.98
1602.00	61979.73
1603.00	61959.44
1604.00	62007.03
1605.00	62110.02
1606.00	62152.15
1607.00	62087.39
1608.00	61951.64
1609.00	61909.51
1610.00	61917.31
1611.00	61889.23
1612.00	61951.64
1613.00	61953.20
1614.00	62074.13
1615.00	62063.21
1616.00	62029.66
1617.00	61964.12
1618.00	61884.54
1619.00	61870.50
1620.00	61847.10
1621.00	61856.46
1622.00	61892.35
1623.00	61890.79
1624.00	61995.33
1625.00	61991.43
1626.00	61989.09
1627.00	61890.01
1628.00	61904.05
1629.00	62055.40
1630.00	62199.74
1631.00	62201.30
1632.00	62066.33
1633.00	61903.27
1634.00	61844.76
1635.00	61732.41
1636.00	61655.17
1637.00	61648.15
1638.00	61598.22
1639.00	61630.99
1640.00	61672.34
1641.00	61752.69
1642.00	61749.57
1643.00	61746.45
1644.00	61764.40
1645.00	61805.75
1646.00	61755.82
1647.00	61659.07
1648.00	61595.88
1649.00	61483.53
1650.00	61458.57
1651.00	61356.36
1652.00	61358.70
1653.00	61462.47
1654.00	61498.36
1655.00	61544.39
1656.00	61443.74
1657.00	61584.18
1658.00	61634.89
1659.00	61748.01
1660.00	61754.25
1661.00	61808.09
1662.00	61836.17
1663.00	61776.88
1664.00	61709.78
1665.00	61635.67
1666.00	61595.88
1667.00	61573.25
1668.00	61495.24
1669.00	61439.84
1670.00	61294.73
1671.00	61295.51
1672.00	61355.58
1673.00	61476.51
1674.00	61662.19
1675.00	61605.24
1676.00	61588.08
1677.00	61419.56
1678.00	61474.95
1679.00	61483.53
1680.00	61460.91
1681.00	61427.36
1682.00	61451.55
1683.00	61396.93
1684.00	61312.67
1685.00	61164.44
1686.00	61126.99
1687.00	61113.73
1688.00	61084.86
1689.00	61048.97
1690.00	60999.04
1691.00	61043.51
1692.00	61158.20
1693.00	61298.63
1694.00	61332.96
1695.00	61392.25
1696.00	61309.55
1697.00	61262.74
1698.00	61168.34
1699.00	61042.73
1700.00	60945.99
1701.00	60768.89
1702.00	60763.43
1703.00	60694.77
1704.00	60724.42
1705.00	60723.64
1706.00	60732.22
1707.00	60628.46
1708.00	60549.66
1709.00	60495.83
1710.00	60544.20
1711.00	60667.47
1712.00	60708.04
1713.00	60772.01
1714.00	60722.08
1715.00	60785.27
1716.00	60760.31
1717.00	60683.85
1718.00	60640.16
1719.00	60555.90
1720.00	60585.55
1721.00	60551.22
1722.00	60630.80
1723.00	60626.90
1724.00	60611.29
1725.00	60545.76
1726.00	60419.37
1727.00	60316.39
1728.00	60215.74
1729.00	60293.76
1730.00	60361.64
1731.00	60466.18
1732.00	60477.88
1733.00	60565.26
1734.00	60521.57
1735.00	60482.56
1736.00	60290.64
1737.00	60197.02
1738.00	60056.59
1739.00	60025.38
1740.00	59853.74
1741.00	59839.70
1742.00	59749.98
1743.00	59805.37
1744.00	59831.11
1745.00	59787.42
1746.00	59846.72
1747.00	59736.71
1748.00	59815.51
1749.00	59725.79
1750.00	59753.88
1751.00	59650.11
1752.00	59600.96
1753.00	59541.67
1754.00	59458.97
1755.00	59433.22
1756.00	59327.90
1757.00	59250.66
1758.00	59064.20
1759.00	58971.36
1760.00	58934.69
1761.00	59048.60
1762.00	59068.10
1763.00	59028.31
1764.00	58861.35
1765.00	58792.70
1766.00	58778.65
1767.00	58803.62
1768.00	58779.43
1769.00	58756.03
1770.00	58756.03
1771.00	58651.48
1772.00	58545.38
1773.00	58358.14
1774.00	58337.07
1775.00	58338.63
1776.00	58497.79
1777.00	58485.31
1778.00	58505.59
1779.00	58375.30
1780.00	58308.21
1781.00	58155.29
1782.00	58135.01
1783.00	58121.74
1784.00	58182.60
1785.00	58184.16
1786.00	58179.48
1787.00	58188.84
1788.00	58120.18
1789.00	58149.05
1790.00	58012.52
1791.00	57969.61
1792.00	57803.43
1793.00	57817.47
1794.00	57724.63
1795.00	57715.27
1796.00	57667.68
1797.00	57716.83
1798.00	57686.40
1799.00	57733.99
1800.00	57616.97
1801.00	57548.31
1802.00	57375.11
1803.00	57237.02
1804.00	57171.49
1805.00	56992.04
1806.00	56898.42
1807.00	56745.51
1808.00	56789.98
1809.00	56747.85
1810.00	56760.33
1811.00	56655.79
1812.00	56516.92
1813.00	56353.08
1814.00	56211.87
1815.00	56247.75
1816.00	56109.66
1817.00	55881.85
1818.00	55650.92
1819.00	55501.12
1820.00	55515.95
1821.00	55437.93
1822.00	55498.78
1823.00	55388.78
1824.00	55489.42
1825.00	55391.90
1826.00	55447.29
1827.00	55309.20
1828.00	55204.66
1829.00	55078.27
1830.00	54758.39
1831.00	54721.72
1832.00	54595.34
1833.00	54663.99
1834.00	54535.26
1835.00	54466.61
1836.00	54064.03
1837.00	53866.65
1838.00	53773.03
1839.00	54094.46
1840.00	54229.43
1841.00	54190.42
1842.00	54074.96
1843.00	53837.00
1844.00	53554.58
1845.00	53311.94
1846.00	53182.43
1847.00	53212.08
1848.00	53098.95
1849.00	52855.54
1850.00	52708.86
1851.00	52674.54
1852.00	52720.57
1853.00	52705.74
1854.00	52682.34
1855.00	52584.82
1856.00	52262.60
1857.00	52090.96
1858.00	51980.96
1859.00	51828.82
1860.00	51603.35
1861.00	51494.13
1862.00	51495.69
1863.00	51413.77
1864.00	51114.18
1865.00	51094.67
1866.00	50933.18
1867.00	50946.44
1868.00	50621.11
1869.00	50433.08
1870.00	50267.69
1871.00	50028.95
1872.00	49815.96
1873.00	49625.60
1874.00	49479.71
1875.00	49358.78
1876.00	49121.60
1877.00	49018.62
1878.00	48884.43
1879.00	48844.64
1880.00	48831.38
1881.00	48658.18
1882.00	48488.88
1883.00	48209.57
1884.00	48196.31
1885.00	48076.16
1886.00	47987.22
1887.00	47642.38
1888.00	47363.08
1889.00	47219.53
1890.00	47283.50
1891.00	47136.05
1892.00	46855.96
1893.00	46689.01
1894.00	46689.79
1895.00	46821.64
1896.00	46814.62
1897.00	46925.40
1898.00	46689.01
1899.00	46504.10
1900.00	46149.90
1901.00	46057.84
1902.00	45905.71
1903.00	45695.84
1904.00	45505.48
1905.00	45283.90
1906.00	44995.24
1907.00	44548.98
1908.00	44200.24
1909.00	44091.79
1910.00	44009.09
1911.00	43855.40
1912.00	43615.88
1913.00	43445.02
1914.00	43260.90
1915.00	43155.58
1916.00	42954.29
1917.00	42723.36
1918.00	42440.15
1919.00	42248.23
1920.00	42073.47
1921.00	42002.47
1922.00	41774.66
1923.00	41545.29
1924.00	41286.27
1925.00	41253.50
1926.00	41090.44
1927.00	40651.20
1928.00	40321.97
1929.00	40210.40
1930.00	40328.21
1931.00	40374.24
1932.00	40427.29
1933.00	40303.24
1934.00	40139.41
1935.00	39864.00
1936.00	39526.97
1937.00	39181.35
1938.00	38822.47
1939.00	38778.78
1940.00	38603.24
1941.00	38397.27
1942.00	37956.47
1943.00	37678.72
1944.00	37525.81
1945.00	37493.04
1946.00	37288.63
1947.00	36990.61
1948.00	36715.98
1949.00	36659.81
1950.00	36694.92
1951.00	36567.75
1952.00	36314.19
1953.00	35954.53
1954.00	35849.21
1955.00	35688.49
1956.00	35453.65
1957.00	34990.23
1958.00	34740.57
1959.00	34661.77
1960.00	34531.48
1961.00	34275.59
1962.00	33743.50
1963.00	33462.64
1964.00	33135.74
1965.00	33095.96
1966.00	32910.27
1967.00	32753.46
1968.00	32417.20
1969.00	32138.68
1970.00	31878.88
1971.00	31910.86
1972.00	31877.32
1973.00	31782.91
1974.00	31381.12
1975.00	30993.37
1976.00	30580.66
1977.00	30296.67
1978.00	30093.05
1979.00	29991.62
1980.00	29998.65
1981.00	29873.82
1982.00	29677.21
1983.00	29359.68
1984.00	29172.44
1985.00	29149.03
1986.00	29101.44
1987.00	28882.99
1988.00	28734.76
1989.00	28494.46
1990.00	28460.13
1991.00	28091.89
1992.00	27815.71
1993.00	27344.48
1994.00	27038.65
1995.00	26834.24
1996.00	26939.57
1997.00	26933.32
1998.00	26826.44
1999.00	26458.20
2000.00	26242.09
2001.00	26032.22
2002.00	25873.84
2003.00	25660.85
2004.00	25450.99
2005.00	25257.50
2006.00	25041.39
2007.00	24784.71
2008.00	24517.11
2009.00	24219.08
2010.00	23986.59
2011.00	23934.32
2012.00	23928.86
2013.00	23798.57
2014.00	23605.86
2015.00	23452.17
2016.00	23382.73
2017.00	23140.88
2018.00	22974.70
2019.00	22658.73
2020.00	22494.89
2021.00	22323.25
2022.00	22189.84
2023.00	21925.36
2024.00	21695.21
2025.00	21578.96
2026.00	21540.73
2027.00	21356.61
2028.00	21298.09
2029.00	21187.31
2030.00	21083.55
2031.00	20805.02
2032.00	20698.92
2033.00	20649.77
2034.00	20578.77
2035.00	20379.82
2036.00	20089.60
2037.00	19977.25
2038.00	19766.60
2039.00	19612.91
2040.00	19325.02
2041.00	19164.31
2042.00	19003.59
2043.00	18921.67
2044.00	18799.96
2045.00	18693.86
2046.00	18485.55
2047.00	18225.75
>>>>>End Processed Spectral Data<<<<<
