SpectraSuite Data File
++++++++++++++++++++++++++++++++++++
Date: Thu Nov 16 14:01:27 EST 2017
User: cheriyan
Dark Spectrum Present: No
Reference Spectrum Present: No
Number of Sampled Component Spectra: 1
Spectrometers: USB2+H05261
Integration Time (usec): 100000 (USB2+H05261)
Spectra Averaged: 1 (USB2+H05261)
Boxcar Smoothing: 1 (USB2+H05261)
Correct for Electrical Dark: No (USB2+H05261)
Strobe/Lamp Enabled: No (USB2+H05261)
Correct for Detector Non-linearity: No (USB2+H05261)
Correct for Stray Light: No (USB2+H05261)
Number of Pixels in Processed Spectrum: 2048
>>>>>Begin Processed Spectral Data<<<<<
0.00	346.40
1.00	346.40
2.00	322.21
3.00	287.11
4.00	255.90
5.00	244.20
6.00	243.42
7.00	266.04
8.00	264.48
9.00	248.88
10.00	235.61
11.00	240.30
12.00	267.60
13.00	237.95
14.00	239.51
15.00	249.66
16.00	234.83
17.00	225.47
18.00	211.43
19.00	238.73
20.00	254.34
21.00	260.58
22.00	290.23
23.00	352.64
24.00	496.97
25.00	685.78
26.00	818.41
27.00	886.28
28.00	859.76
29.00	858.98
30.00	816.85
31.00	819.19
32.00	806.70
33.00	841.81
34.00	867.56
35.00	903.45
36.00	897.21
37.00	878.48
38.00	883.94
39.00	887.84
40.00	913.59
41.00	922.95
42.00	940.12
43.00	947.14
44.00	923.73
45.00	922.95
46.00	953.38
47.00	977.56
48.00	992.39
49.00	967.42
50.00	959.62
51.00	986.93
52.00	1002.53
53.00	1026.72
54.00	994.73
55.00	961.18
56.00	962.74
57.00	951.82
58.00	996.29
59.00	990.05
60.00	1000.97
61.00	1005.65
62.00	1006.43
63.00	1038.42
64.00	1035.30
65.00	1042.32
66.00	1023.59
67.00	1037.64
68.00	1035.30
69.00	1056.36
70.00	1039.20
71.00	1033.74
72.00	1025.15
73.00	1034.52
74.00	1057.14
75.00	1078.21
76.00	1080.55
77.00	1072.75
78.00	1075.09
79.00	1128.14
80.00	1140.62
81.00	1138.28
82.00	1130.48
83.00	1149.98
84.00	1136.72
85.00	1100.83
86.00	1110.19
87.00	1145.30
88.00	1188.21
89.00	1179.63
90.00	1182.75
91.00	1187.43
92.00	1196.79
93.00	1200.69
94.00	1192.89
95.00	1220.98
96.00	1241.26
97.00	1236.58
98.00	1235.80
99.00	1248.29
100.00	1288.07
101.00	1300.56
102.00	1291.20
103.00	1295.10
104.00	1326.30
105.00	1316.16
106.00	1303.68
107.00	1264.67
108.00	1242.82
109.00	1245.16
110.00	1230.34
111.00	1270.91
112.00	1239.70
113.00	1271.69
114.00	1282.61
115.00	1319.28
116.00	1311.48
117.00	1321.62
118.00	1352.83
119.00	1355.17
120.00	1354.39
121.00	1338.79
122.00	1366.87
123.00	1366.09
124.00	1389.50
125.00	1379.36
126.00	1398.08
127.00	1393.40
128.00	1398.08
129.00	1434.75
130.00	1419.92
131.00	1450.35
132.00	1455.81
133.00	1497.94
134.00	1503.40
135.00	1499.50
136.00	1519.01
137.00	1554.12
138.00	1563.48
139.00	1572.84
140.00	1576.74
141.00	1579.08
142.00	1586.10
143.00	1559.58
144.00	1574.40
145.00	1556.46
146.00	1611.85
147.00	1600.15
148.00	1647.74
149.00	1660.22
150.00	1685.19
151.00	1650.08
152.00	1628.23
153.00	1618.87
154.00	1681.28
155.00	1737.46
156.00	1760.08
157.00	1785.83
158.00	1753.84
159.00	1771.01
160.00	1741.36
161.00	1734.34
162.00	1773.35
163.00	1781.93
164.00	1820.16
165.00	1775.69
166.00	1753.06
167.00	1739.02
168.00	1802.99
169.00	1849.80
170.00	1856.04
171.00	1836.54
172.00	1849.80
173.00	1878.67
174.00	1882.57
175.00	1881.79
176.00	1866.19
177.00	1923.14
178.00	1949.67
179.00	1990.24
180.00	1953.57
181.00	1928.60
182.00	1946.55
183.00	1974.63
184.00	2008.18
185.00	1998.82
186.00	2001.16
187.00	2030.02
188.00	2056.55
189.00	2044.07
190.00	2086.20
191.00	2114.28
192.00	2189.96
193.00	2168.90
194.00	2175.14
195.00	2166.56
196.00	2185.28
197.00	2157.97
198.00	2152.51
199.00	2136.13
200.00	2125.21
201.00	2183.72
202.00	2216.49
203.00	2271.10
204.00	2276.56
205.00	2278.12
206.00	2341.32
207.00	2292.16
208.00	2298.41
209.00	2257.84
210.00	2310.89
211.00	2291.38
212.00	2284.36
213.00	2267.98
214.00	2331.17
215.00	2401.39
216.00	2430.26
217.00	2430.26
218.00	2463.80
219.00	2474.73
220.00	2468.48
221.00	2430.26
222.00	2473.17
223.00	2507.49
224.00	2505.93
225.00	2514.52
226.00	2570.69
227.00	2580.05
228.00	2578.49
229.00	2568.35
230.00	2629.20
231.00	2613.60
232.00	2606.58
233.00	2577.71
234.00	2653.39
235.00	2690.06
236.00	2706.44
237.00	2663.53
238.00	2642.46
239.00	2635.44
240.00	2666.65
241.00	2723.60
242.00	2832.05
243.00	2866.38
244.00	2912.41
245.00	2915.53
246.00	2930.35
247.00	2922.55
248.00	2919.43
249.00	2952.20
250.00	2927.23
251.00	2933.47
252.00	2949.08
253.00	3006.81
254.00	3062.98
255.00	3101.21
256.00	3133.20
257.00	3133.20
258.00	3156.60
259.00	3165.96
260.00	3174.55
261.00	3213.56
262.00	3253.34
263.00	3247.10
264.00	3212.78
265.00	3177.67
266.00	3237.74
267.00	3288.45
268.00	3333.70
269.00	3378.17
270.00	3391.44
271.00	3402.36
272.00	3447.61
273.00	3458.53
274.00	3469.45
275.00	3474.14
276.00	3496.76
277.00	3507.68
278.00	3478.04
279.00	3507.68
280.00	3557.61
281.00	3584.92
282.00	3566.20
283.00	3641.87
284.00	3654.36
285.00	3695.71
286.00	3681.66
287.00	3663.72
288.00	3618.47
289.00	3591.94
290.00	3682.44
291.00	3780.75
292.00	3836.92
293.00	3865.00
294.00	3875.15
295.00	3898.55
296.00	3890.75
297.00	3871.25
298.00	3927.42
299.00	3904.01
300.00	3923.52
301.00	3840.04
302.00	3865.00
303.00	3920.40
304.00	4003.10
305.00	4047.57
306.00	4039.76
307.00	3972.67
308.00	3967.99
309.00	3955.51
310.00	3993.73
311.00	4034.30
312.00	4057.71
313.00	4071.75
314.00	4055.37
315.00	4085.02
316.00	4109.20
317.00	4148.21
318.00	4152.11
319.00	4184.88
320.00	4217.65
321.00	4273.82
322.00	4276.16
323.00	4250.41
324.00	4269.92
325.00	4372.12
326.00	4405.67
327.00	4390.84
328.00	4315.95
329.00	4372.12
330.00	4429.07
331.00	4412.69
332.00	4370.56
333.00	4333.11
334.00	4379.14
335.00	4448.58
336.00	4528.16
337.00	4558.58
338.00	4556.24
339.00	4551.56
340.00	4631.92
341.00	4685.75
342.00	4723.20
343.00	4770.79
344.00	4787.18
345.00	4792.64
346.00	4769.23
347.00	4778.59
348.00	4787.18
349.00	4819.94
350.00	4831.65
351.00	4876.12
352.00	4897.18
353.00	4944.77
354.00	4958.03
355.00	4938.53
356.00	4923.71
357.00	4957.25
358.00	4970.52
359.00	5018.11
360.00	5029.81
361.00	5096.13
362.00	5114.07
363.00	5171.02
364.00	5144.50
365.00	5171.02
366.00	5144.50
367.00	5235.78
368.00	5256.84
369.00	5287.27
370.00	5344.22
371.00	5383.23
372.00	5391.81
373.00	5367.63
374.00	5401.96
375.00	5499.48
376.00	5516.64
377.00	5512.74
378.00	5504.16
379.00	5546.29
380.00	5607.14
381.00	5658.64
382.00	5691.40
383.00	5751.48
384.00	5769.42
385.00	5775.66
386.00	5811.55
387.00	5880.99
388.00	5916.87
389.00	5943.40
390.00	6013.62
391.00	6136.10
392.00	6118.94
393.00	6163.41
394.00	6117.38
395.00	6230.51
396.00	6285.12
397.00	6424.77
398.00	6448.96
399.00	6506.69
400.00	6527.75
401.00	6622.94
402.00	6605.77
403.00	6668.19
404.00	6583.93
405.00	6599.53
406.00	6644.78
407.00	6675.99
408.00	6627.62
409.00	6583.93
410.00	6663.51
411.00	6739.96
412.00	6754.79
413.00	6731.38
414.00	6756.35
415.00	6775.85
416.00	6779.75
417.00	6765.71
418.00	6780.53
419.00	6773.51
420.00	6789.89
421.00	6835.14
422.00	6817.98
423.00	6855.43
424.00	6860.11
425.00	6978.70
426.00	6991.96
427.00	7049.69
428.00	7040.33
429.00	7113.67
430.00	7077.78
431.00	7029.41
432.00	6965.43
433.00	6994.30
434.00	7104.31
435.00	7175.30
436.00	7169.84
437.00	7173.74
438.00	7179.20
439.00	7150.34
440.00	7275.95
441.00	7379.71
442.00	7533.40
443.00	7540.43
444.00	7567.73
445.00	7618.44
446.00	7616.10
447.00	7609.08
448.00	7602.84
449.00	7556.81
450.00	7576.31
451.00	7596.60
452.00	7676.18
453.00	7697.24
454.00	7733.13
455.00	7787.74
456.00	7866.54
457.00	7875.12
458.00	7867.32
459.00	7811.93
460.00	7889.17
461.00	7882.14
462.00	7970.30
463.00	7934.42
464.00	8055.34
465.00	8107.62
466.00	8154.43
467.00	8220.74
468.00	8213.72
469.00	8285.50
470.00	8260.53
471.00	8310.46
472.00	8302.66
473.00	8336.21
474.00	8483.66
475.00	8587.43
476.00	8714.59
477.00	8738.78
478.00	8829.28
479.00	8763.75
480.00	8738.00
481.00	8743.46
482.00	8823.04
483.00	8830.84
484.00	8883.11
485.00	8927.58
486.00	8961.91
487.00	8961.91
488.00	9008.72
489.00	9106.24
490.00	9096.88
491.00	9147.59
492.00	9139.79
493.00	9171.78
494.00	9168.66
495.00	9155.40
496.00	9185.04
497.00	9260.72
498.00	9370.72
499.00	9465.91
500.00	9415.20
501.00	9431.58
502.00	9462.79
503.00	9614.92
504.00	9642.23
505.00	9716.34
506.00	9746.77
507.00	9849.75
508.00	9850.53
509.00	9920.75
510.00	9964.44
511.00	10021.39
512.00	10057.28
513.00	10157.93
514.00	10197.71
515.00	10175.09
516.00	10142.32
517.00	10224.24
518.00	10285.87
519.00	10326.44
520.00	10281.97
521.00	10267.93
522.00	10200.05
523.00	10239.06
524.00	10377.94
525.00	10526.17
526.00	10534.75
527.00	10540.21
528.00	10512.91
529.00	10561.28
530.00	10539.43
531.00	10558.16
532.00	10688.45
533.00	10747.74
534.00	10803.13
535.00	10784.41
536.00	10813.28
537.00	10836.68
538.00	10879.59
539.00	10864.77
540.00	10845.26
541.00	10825.76
542.00	10860.09
543.00	11005.98
544.00	11045.77
545.00	11101.94
546.00	11119.89
547.00	11232.23
548.00	11367.20
549.00	11524.80
550.00	11569.27
551.00	11658.99
552.00	11674.59
553.00	11683.95
554.00	11641.82
555.00	11584.87
556.00	11616.86
557.00	11710.48
558.00	11835.31
559.00	11939.85
560.00	11989.00
561.00	12060.00
562.00	12124.76
563.00	12199.65
564.00	12206.67
565.00	12300.30
566.00	12441.51
567.00	12549.17
568.00	12609.25
569.00	12562.44
570.00	12683.36
571.00	12808.97
572.00	12856.56
573.00	12785.57
574.00	12775.42
575.00	12939.26
576.00	13167.85
577.00	13319.99
578.00	13397.23
579.00	13405.03
580.00	13423.75
581.00	13542.34
582.00	13738.16
583.00	13904.34
584.00	14018.25
585.00	14113.43
586.00	14245.28
587.00	14167.26
588.00	14026.05
589.00	13947.25
590.00	14096.27
591.00	14339.68
592.00	14643.17
593.00	14838.22
594.00	15006.73
595.00	15009.86
596.00	15176.03
597.00	15354.69
598.00	15477.96
599.00	15525.55
600.00	15613.71
601.00	15791.59
602.00	15860.25
603.00	15941.39
604.00	16063.10
605.00	16480.49
606.00	16636.53
607.00	16752.77
608.00	16743.41
609.00	16795.68
610.00	16850.30
611.00	16869.02
612.00	16954.84
613.00	17250.53
614.00	17400.32
615.00	17582.10
616.00	17612.53
617.00	17713.17
618.00	17833.32
619.00	17999.50
620.00	18157.88
621.00	18448.10
622.00	18526.12
623.00	18858.48
624.00	18847.55
625.00	19035.58
626.00	19009.05
627.00	19157.28
628.00	19203.32
629.00	19402.26
630.00	19688.59
631.00	19928.88
632.00	19905.48
633.00	20109.88
634.00	20378.26
635.00	20762.89
636.00	20887.72
637.00	20975.10
638.00	21093.69
639.00	21137.38
640.00	21240.36
641.00	21302.78
642.00	21487.68
643.00	21786.49
644.00	21966.71
645.00	22151.61
646.00	22189.06
647.00	22360.70
648.00	22527.66
649.00	22668.09
650.00	22876.40
651.00	23066.76
652.00	23262.58
653.00	23457.63
654.00	23608.20
655.00	23794.67
656.00	23949.92
657.00	24082.55
658.00	24267.45
659.00	24531.93
660.00	24834.64
661.00	25026.57
662.00	25124.87
663.00	25096.00
664.00	25301.19
665.00	25423.68
666.00	25736.53
667.00	25777.10
668.00	25873.06
669.00	25907.39
670.00	26001.79
671.00	26228.04
672.00	26348.97
673.00	26631.40
674.00	26849.85
675.00	27069.86
676.00	27177.52
677.00	27167.38
678.00	27310.93
679.00	27475.55
680.00	27771.24
681.00	27988.13
682.00	28200.33
683.00	28400.06
684.00	28636.45
685.00	28702.77
686.00	28740.22
687.00	28902.50
688.00	29195.84
689.00	29560.19
690.00	29578.13
691.00	29667.07
692.00	29674.09
693.00	29876.94
694.00	30226.46
695.00	30366.89
696.00	30700.03
697.00	30722.65
698.00	30966.07
699.00	30926.28
700.00	31111.96
701.00	31239.91
702.00	31504.39
703.00	31720.50
704.00	31937.39
705.00	32245.56
706.00	32457.77
707.00	32655.15
708.00	32815.87
709.00	32977.37
710.00	33114.68
711.00	33221.56
712.00	33339.37
713.00	33515.69
714.00	33523.49
715.00	33612.43
716.00	33725.56
717.00	33975.22
718.00	34012.66
719.00	34118.77
720.00	34005.64
721.00	34175.72
722.00	34352.04
723.00	34664.89
724.00	34886.47
725.00	34848.24
726.00	34809.23
727.00	35016.75
728.00	35070.59
729.00	35303.08
730.00	35314.00
731.00	35444.29
732.00	35481.74
733.00	35446.63
734.00	35648.70
735.00	35850.77
736.00	36024.75
737.00	36210.43
738.00	36458.52
739.00	36624.70
740.00	36738.61
741.00	36775.28
742.00	36943.02
743.00	36876.70
744.00	36917.27
745.00	36974.22
746.00	37272.25
747.00	37571.84
748.00	37711.49
749.00	37801.99
750.00	37888.59
751.00	37908.88
752.00	38240.45
753.00	38444.86
754.00	38834.95
755.00	38720.26
756.00	38785.80
757.00	38792.04
758.00	39064.32
759.00	39006.59
760.00	38977.72
761.00	39047.16
762.00	39307.74
763.00	39534.77
764.00	39659.60
765.00	39768.82
766.00	39945.14
767.00	39949.82
768.00	40017.70
769.00	39958.41
770.00	40409.35
771.00	40645.74
772.00	40964.84
773.00	40998.38
774.00	41173.14
775.00	41357.27
776.00	41446.99
777.00	41664.66
778.00	41675.58
779.00	41911.19
780.00	41800.41
781.00	41947.86
782.00	41980.63
783.00	42327.03
784.00	42508.03
785.00	42602.43
786.00	42631.30
787.00	42877.83
788.00	43082.24
789.00	43318.64
790.00	43328.00
791.00	43406.02
792.00	43428.64
793.00	43469.21
794.00	43625.25
795.00	43629.93
796.00	43965.40
797.00	44177.61
798.00	44305.56
799.00	44337.55
800.00	44371.88
801.00	44530.25
802.00	44719.84
803.00	44701.89
804.00	44841.54
805.00	45000.70
806.00	45424.34
807.00	45542.92
808.00	45592.08
809.00	45461.79
810.00	45663.07
811.00	45760.59
812.00	45918.97
813.00	46013.37
814.00	46118.70
815.00	46340.27
816.00	46542.33
817.00	46537.65
818.00	46469.00
819.00	46433.89
820.00	46624.25
821.00	46721.77
822.00	46806.81
823.00	46869.23
824.00	47075.19
825.00	47409.11
826.00	47486.35
827.00	47697.78
828.00	47482.45
829.00	47530.82
830.00	47425.49
831.00	47698.56
832.00	47795.30
833.00	47781.26
834.00	47780.48
835.00	47935.73
836.00	48302.42
837.00	48463.13
838.00	48616.83
839.00	48555.97
840.00	48708.11
841.00	48944.50
842.00	49264.38
843.00	49495.31
844.00	49582.69
845.00	49699.72
846.00	49732.48
847.00	49824.54
848.00	50035.19
849.00	50182.65
850.00	50307.47
851.00	50266.13
852.00	50346.48
853.00	50324.64
854.00	50300.45
855.00	50209.95
856.00	50387.05
857.00	50458.05
858.00	50777.92
859.00	50768.56
860.00	50905.87
861.00	50818.49
862.00	50855.94
863.00	50825.51
864.00	50801.33
865.00	50912.11
866.00	51022.90
867.00	51084.53
868.00	51149.29
869.00	51395.04
870.00	51529.23
871.00	51575.26
872.00	51526.11
873.00	51622.86
874.00	51889.68
875.00	51986.42
876.00	52042.59
877.00	52030.89
878.00	52082.38
879.00	52288.35
880.00	52366.37
881.00	52323.46
882.00	52223.59
883.00	52223.59
884.00	52300.83
885.00	52287.57
886.00	52230.61
887.00	52301.61
888.00	52499.78
889.00	52600.42
890.00	52613.68
891.00	52591.06
892.00	52719.79
893.00	52747.09
894.00	52875.82
895.00	53013.91
896.00	53214.42
897.00	53205.06
898.00	53190.23
899.00	53230.80
900.00	53336.13
901.00	53479.68
902.00	53598.27
903.00	53755.86
904.00	53838.56
905.00	54001.62
906.00	53983.68
907.00	53930.62
908.00	53740.26
909.00	53980.56
910.00	54023.47
911.00	54141.27
912.00	53998.50
913.00	54093.68
914.00	54132.69
915.00	54157.66
916.00	54007.08
917.00	53936.87
918.00	53875.23
919.00	53897.08
920.00	53998.50
921.00	54024.25
922.00	54184.18
923.00	54237.23
924.00	54372.20
925.00	54437.74
926.00	54564.91
927.00	54690.52
928.00	54677.25
929.00	54763.85
930.00	54790.38
931.00	54919.89
932.00	54946.42
933.00	54914.43
934.00	54837.19
935.00	54796.62
936.00	54933.93
937.00	55099.33
938.00	55067.34
939.00	55070.46
940.00	55082.95
941.00	55244.44
942.00	55345.09
943.00	55437.15
944.00	55505.80
945.00	55533.89
946.00	55633.75
947.00	55577.58
948.00	55693.05
949.00	55753.12
950.00	55935.68
951.00	55874.05
952.00	55773.41
953.00	55817.88
954.00	55858.45
955.00	56030.08
956.00	55991.86
957.00	56059.73
958.00	56193.14
959.00	56370.24
960.00	56426.42
961.00	56299.25
962.00	56289.88
963.00	56388.19
964.00	56584.79
965.00	56676.85
966.00	56857.07
967.00	56929.63
968.00	56923.39
969.00	56788.42
970.00	56757.99
971.00	56789.20
972.00	56868.78
973.00	56896.08
974.00	56963.18
975.00	57059.14
976.00	57048.22
977.00	57066.94
978.00	57059.92
979.00	57135.60
980.00	57173.05
981.00	57270.57
982.00	57250.28
983.00	57247.94
984.00	57283.05
985.00	57382.13
986.00	57315.04
987.00	57166.02
988.00	57171.49
989.00	57283.05
990.00	57490.58
991.00	57478.88
992.00	57542.07
993.00	57535.83
994.00	57756.62
995.00	57979.75
996.00	58109.26
997.00	58159.19
998.00	58243.45
999.00	58248.13
1000.00	58345.65
1001.00	58273.88
1002.00	58242.67
1003.00	58115.50
1004.00	58070.25
1005.00	58060.11
1006.00	58133.45
1007.00	58261.40
1008.00	58363.60
1009.00	58336.29
1010.00	58295.72
1011.00	58335.51
1012.00	58469.70
1013.00	58536.02
1014.00	58511.05
1015.00	58469.70
1016.00	58417.43
1017.00	58564.10
1018.00	58701.42
1019.00	58820.00
1020.00	58768.51
1021.00	58796.60
1022.00	58834.05
1023.00	58823.90
1024.00	58738.08
1025.00	58771.63
1026.00	58972.92
1027.00	59033.77
1028.00	59118.81
1029.00	59043.91
1030.00	59057.96
1031.00	59191.37
1032.00	59307.61
1033.00	59379.39
1034.00	59302.15
1035.00	59256.12
1036.00	59332.58
1037.00	59329.46
1038.00	59344.28
1039.00	59334.14
1040.00	59356.77
1041.00	59417.62
1042.00	59463.65
1043.00	59588.48
1044.00	59675.08
1045.00	59735.15
1046.00	59771.82
1047.00	59779.62
1048.00	59870.90
1049.00	59891.97
1050.00	60012.12
1051.00	60020.70
1052.00	60065.17
1053.00	59965.31
1054.00	59930.98
1055.00	59862.32
1056.00	59960.62
1057.00	60017.58
1058.00	60111.20
1059.00	60086.23
1060.00	60125.24
1061.00	60104.96
1062.00	60232.13
1063.00	60292.20
1064.00	60305.46
1065.00	60273.48
1066.00	60309.36
1067.00	60377.24
1068.00	60355.39
1069.00	60339.79
1070.00	60254.75
1071.00	60358.52
1072.00	60392.06
1073.00	60547.32
1074.00	60598.03
1075.00	60600.37
1076.00	60639.38
1077.00	60691.65
1078.00	60824.28
1079.00	60884.36
1080.00	60852.37
1081.00	60803.22
1082.00	60829.74
1083.00	60841.45
1084.00	60893.72
1085.00	60867.19
1086.00	60906.98
1087.00	60983.44
1088.00	60982.66
1089.00	61066.14
1090.00	61032.59
1091.00	61105.15
1092.00	61058.34
1093.00	61084.86
1094.00	61097.34
1095.00	61116.85
1096.00	61064.58
1097.00	61152.74
1098.00	61161.32
1099.00	61229.97
1100.00	61184.72
1101.00	61215.15
1102.00	61243.24
1103.00	61243.24
1104.00	61313.45
1105.00	61396.93
1106.00	61423.46
1107.00	61422.68
1108.00	61440.62
1109.00	61573.25
1110.00	61624.74
1111.00	61575.59
1112.00	61530.34
1113.00	61510.06
1114.00	61517.86
1115.00	61521.76
1116.00	61487.43
1117.00	61486.65
1118.00	61409.42
1119.00	61461.69
1120.00	61495.24
1121.00	61534.24
1122.00	61623.18
1123.00	61614.60
1124.00	61723.83
1125.00	61605.24
1126.00	61542.05
1127.00	61583.40
1128.00	61683.26
1129.00	61806.53
1130.00	61768.30
1131.00	61836.17
1132.00	61913.41
1133.00	61901.71
1134.00	61819.01
1135.00	61734.75
1136.00	61720.71
1137.00	61797.94
1138.00	61971.14
1139.00	62101.43
1140.00	62121.72
1141.00	62020.30
1142.00	62001.57
1143.00	61993.77
1144.00	62006.25
1145.00	62001.57
1146.00	62074.91
1147.00	62102.21
1148.00	62172.43
1149.00	62140.44
1150.00	62120.94
1151.00	62029.66
1152.00	62090.51
1153.00	62067.11
1154.00	62056.18
1155.00	61980.51
1156.00	62000.01
1157.00	62060.86
1158.00	62102.21
1159.00	62144.34
1160.00	62143.56
1161.00	62139.66
1162.00	62129.52
1163.00	62116.26
1164.00	62080.37
1165.00	62103.77
1166.00	62180.23
1167.00	62279.31
1168.00	62444.71
1169.00	62475.92
1170.00	62482.94
1171.00	62456.42
1172.00	62395.56
1173.00	62342.51
1174.00	62182.57
1175.00	62301.16
1176.00	62257.47
1177.00	62346.41
1178.00	62244.99
1179.00	62362.79
1180.00	62366.69
1181.00	62354.99
1182.00	62333.93
1183.00	62298.82
1184.00	62331.59
1185.00	62255.13
1186.00	62322.22
1187.00	62346.41
1188.00	62523.51
1189.00	62499.33
1190.00	62482.94
1191.00	62407.26
1192.00	62260.59
1193.00	62204.42
1194.00	62102.21
1195.00	62284.78
1196.00	62345.63
1197.00	62350.31
1198.00	62252.79
1199.00	62250.45
1200.00	62337.83
1201.00	62425.21
1202.00	62465.00
1203.00	62512.59
1204.00	62470.46
1205.00	62444.71
1206.00	62362.79
1207.00	62485.28
1208.00	62512.59
1209.00	62536.77
1210.00	62538.33
1211.00	62575.00
1212.00	62706.07
1213.00	62707.63
1214.00	62616.35
1215.00	62462.66
1216.00	62409.60
1217.00	62434.57
1218.00	62448.61
1219.00	62486.06
1220.00	62653.02
1221.00	62648.34
1222.00	62650.68
1223.00	62509.47
1224.00	62534.43
1225.00	62567.20
1226.00	62686.57
1227.00	62704.51
1228.00	62546.92
1229.00	62440.81
1230.00	62430.67
1231.00	62567.98
1232.00	62648.34
1233.00	62708.41
1234.00	62676.43
1235.00	62609.33
1236.00	62692.81
1237.00	62699.05
1238.00	62758.34
1239.00	62785.65
1240.00	62804.38
1241.00	62841.82
1242.00	62814.52
1243.00	62827.00
1244.00	62770.05
1245.00	62734.16
1246.00	62770.83
1247.00	62812.18
1248.00	62880.05
1249.00	62967.43
1250.00	63047.01
1251.00	63079.78
1252.00	63162.48
1253.00	63304.47
1254.00	63287.31
1255.00	63133.61
1256.00	62982.26
1257.00	63011.90
1258.00	63131.27
1259.00	63101.62
1260.00	63051.69
1261.00	63007.22
1262.00	63135.17
1263.00	63243.62
1264.00	63263.90
1265.00	63248.30
1266.00	63167.94
1267.00	63209.29
1268.00	63236.59
1269.00	63405.11
1270.00	63416.82
1271.00	63444.12
1272.00	63451.92
1273.00	63487.03
1274.00	63455.04
1275.00	63396.53
1276.00	63428.52
1277.00	63405.89
1278.00	63447.24
1279.00	63494.83
1280.00	63594.70
1281.00	63674.27
1282.00	63717.96
1283.00	63775.70
1284.00	63746.83
1285.00	63776.48
1286.00	63828.75
1287.00	63807.68
1288.00	63631.36
1289.00	63594.70
1290.00	63551.01
1291.00	63697.68
1292.00	63662.57
1293.00	63714.84
1294.00	63758.53
1295.00	63792.08
1296.00	63819.39
1297.00	63678.18
1298.00	63680.52
1299.00	63720.30
1300.00	63782.72
1301.00	63806.90
1302.00	63742.93
1303.00	63788.96
1304.00	63841.23
1305.00	63941.88
1306.00	63975.42
1307.00	63821.73
1308.00	63762.43
1309.00	63678.96
1310.00	63816.27
1311.00	63861.52
1312.00	64023.79
1313.00	64086.21
1314.00	64177.49
1315.00	64106.49
1316.00	64073.73
1317.00	64005.85
1318.00	64037.84
1319.00	64062.80
1320.00	64165.79
1321.00	64284.37
1322.00	64379.56
1323.00	64415.44
1324.00	64431.83
1325.00	64395.16
1326.00	64282.81
1327.00	64205.58
1328.00	64085.43
1329.00	64166.57
1330.00	64178.27
1331.00	64297.64
1332.00	64240.68
1333.00	64243.80
1334.00	64282.03
1335.00	64315.58
1336.00	64308.56
1337.00	64318.70
1338.00	64307.00
1339.00	64349.91
1340.00	64304.66
1341.00	64377.22
1342.00	64363.95
1343.00	64399.84
1344.00	64374.87
1345.00	64361.61
1346.00	64300.76
1347.00	64244.58
1348.00	64182.95
1349.00	64257.07
1350.00	64304.66
1351.00	64351.47
1352.00	64257.07
1353.00	64271.89
1354.00	64302.32
1355.00	64338.21
1356.00	64314.80
1357.00	64394.38
1358.00	64459.91
1359.00	64494.24
1360.00	64489.56
1361.00	64555.88
1362.00	64616.73
1363.00	64580.84
1364.00	64496.58
1365.00	64559.00
1366.00	64564.46
1367.00	64512.97
1368.00	64394.38
1369.00	64413.88
1370.00	64467.72
1371.00	64355.37
1372.00	64237.56
1373.00	64218.84
1374.00	64323.38
1375.00	64389.70
1376.00	64413.88
1377.00	64361.61
1378.00	64387.36
1379.00	64403.74
1380.00	64499.70
1381.00	64438.07
1382.00	64377.22
1383.00	64405.30
1384.00	64413.88
1385.00	64505.94
1386.00	64491.12
1387.00	64551.19
1388.00	64571.48
1389.00	64534.81
1390.00	64623.75
1391.00	64672.90
1392.00	64694.75
1393.00	64672.90
1394.00	64601.91
1395.00	64587.08
1396.00	64544.95
1397.00	64446.65
1398.00	64399.84
1399.00	64509.07
1400.00	64619.85
1401.00	64565.24
1402.00	64402.96
1403.00	64259.41
1404.00	64239.12
1405.00	64192.31
1406.00	64118.98
1407.00	64068.26
1408.00	64041.74
1409.00	64115.08
1410.00	64310.12
1411.00	64353.81
1412.00	64364.73
1413.00	64269.55
1414.00	64228.98
1415.00	64255.51
1416.00	64288.27
1417.00	64293.74
1418.00	64303.10
1419.00	64331.18
1420.00	64441.97
1421.00	64451.33
1422.00	64474.74
1423.00	64347.57
1424.00	64255.51
1425.00	64174.37
1426.00	64137.70
1427.00	64156.42
1428.00	64104.93
1429.00	64108.05
1430.00	64179.83
1431.00	64260.97
1432.00	64391.26
1433.00	64360.83
1434.00	64301.54
1435.00	64198.55
1436.00	64165.79
1437.00	64149.40
1438.00	64160.33
1439.00	64186.85
1440.00	64303.10
1441.00	64397.50
1442.00	64478.64
1443.00	64444.31
1444.00	64374.09
1445.00	64289.84
1446.00	64214.16
1447.00	64206.36
1448.00	64166.57
1449.00	64129.12
1450.00	64126.78
1451.00	64136.14
1452.00	64183.73
1453.00	64230.54
1454.00	64275.79
1455.00	64277.35
1456.00	64234.44
1457.00	64185.29
1458.00	64230.54
1459.00	64248.49
1460.00	64348.35
1461.00	64306.22
1462.00	64106.49
1463.00	63905.21
1464.00	63922.37
1465.00	64073.73
1466.00	64145.50
1467.00	63973.08
1468.00	63950.46
1469.00	63987.13
1470.00	64097.91
1471.00	64058.12
1472.00	63943.44
1473.00	63895.84
1474.00	63913.01
1475.00	64058.12
1476.00	64146.28
1477.00	64244.58
1478.00	64246.14
1479.00	64253.17
1480.00	64129.90
1481.00	64079.97
1482.00	64076.07
1483.00	64107.27
1484.00	63945.00
1485.00	63751.51
1486.00	63618.88
1487.00	63631.36
1488.00	63703.14
1489.00	63768.68
1490.00	63785.06
1491.00	63800.66
1492.00	63837.33
1493.00	63902.09
1494.00	63942.66
1495.00	63904.43
1496.00	63807.68
1497.00	63720.30
1498.00	63660.23
1499.00	63675.83
1500.00	63735.13
1501.00	63714.84
1502.00	63724.99
1503.00	63629.02
1504.00	63715.62
1505.00	63857.62
1506.00	63919.25
1507.00	63870.88
1508.00	63772.58
1509.00	63753.85
1510.00	63820.17
1511.00	63835.77
1512.00	63820.95
1513.00	63728.89
1514.00	63675.83
1515.00	63626.68
1516.00	63540.86
1517.00	63524.48
1518.00	63565.05
1519.00	63700.02
1520.00	63719.52
1521.00	63659.45
1522.00	63629.80
1523.00	63576.75
1524.00	63644.63
1525.00	63598.60
1526.00	63628.24
1527.00	63624.34
1528.00	63616.54
1529.00	63530.72
1530.00	63446.46
1531.00	63389.51
1532.00	63497.95
1533.00	63588.45
1534.00	63619.66
1535.00	63507.32
1536.00	63396.53
1537.00	63369.22
1538.00	63425.40
1539.00	63398.87
1540.00	63377.81
1541.00	63351.28
1542.00	63380.15
1543.00	63455.82
1544.00	63423.84
1545.00	63413.69
1546.00	63453.48
1547.00	63451.14
1548.00	63509.66
1549.00	63421.50
1550.00	63458.94
1551.00	63387.95
1552.00	63371.56
1553.00	63423.84
1554.00	63393.41
1555.00	63371.56
1556.00	63257.66
1557.00	63213.19
1558.00	63236.59
1559.00	63265.46
1560.00	63280.28
1561.00	63354.40
1562.00	63366.10
1563.00	63451.14
1564.00	63339.58
1565.00	63338.80
1566.00	63355.18
1567.00	63420.72
1568.00	63320.07
1569.00	63230.35
1570.00	63196.80
1571.00	63160.14
1572.00	63078.22
1573.00	62997.86
1574.00	62949.49
1575.00	62998.64
1576.00	62954.17
1577.00	62948.71
1578.00	62948.71
1579.00	62942.47
1580.00	62909.70
1581.00	62914.38
1582.00	62960.41
1583.00	63026.73
1584.00	63047.01
1585.00	63009.56
1586.00	62953.39
1587.00	62754.44
1588.00	62769.27
1589.00	62822.32
1590.00	62848.06
1591.00	62715.43
1592.00	62593.73
1593.00	62534.43
1594.00	62565.64
1595.00	62565.64
1596.00	62783.31
1597.00	62833.24
1598.00	62990.84
1599.00	62926.08
1600.00	62907.36
1601.00	62787.21
1602.00	62737.28
1603.00	62682.67
1604.00	62703.73
1605.00	62650.68
1606.00	62729.48
1607.00	62670.96
1608.00	62696.71
1609.00	62641.32
1610.00	62514.15
1611.00	62507.13
1612.00	62528.97
1613.00	62743.52
1614.00	62780.97
1615.00	62812.18
1616.00	62731.04
1617.00	62648.34
1618.00	62553.94
1619.00	62539.11
1620.00	62583.58
1621.00	62564.08
1622.00	62560.96
1623.00	62488.40
1624.00	62554.72
1625.00	62594.51
1626.00	62628.05
1627.00	62576.56
1628.00	62546.14
1629.00	62619.47
1630.00	62695.15
1631.00	62777.07
1632.00	62819.20
1633.00	62726.36
1634.00	62702.95
1635.00	62606.21
1636.00	62530.53
1637.00	62421.31
1638.00	62308.96
1639.00	62368.26
1640.00	62433.79
1641.00	62560.96
1642.00	62569.54
1643.00	62581.24
1644.00	62535.99
1645.00	62529.75
1646.00	62463.44
1647.00	62396.34
1648.00	62372.16
1649.00	62228.60
1650.00	62175.55
1651.00	62020.30
1652.00	62095.97
1653.00	62190.37
1654.00	62223.14
1655.00	62150.59
1656.00	62005.47
1657.00	62056.18
1658.00	62165.41
1659.00	62306.62
1660.00	62465.78
1661.00	62548.48
1662.00	62635.86
1663.00	62592.95
1664.00	62465.78
1665.00	62332.37
1666.00	62294.92
1667.00	62364.35
1668.00	62363.57
1669.00	62352.65
1670.00	62235.62
1671.00	62134.98
1672.00	62014.83
1673.00	62106.12
1674.00	62245.77
1675.00	62351.09
1676.00	62342.51
1677.00	62261.37
1678.00	62186.47
1679.00	62105.34
1680.00	62026.54
1681.00	61984.41
1682.00	62007.81
1683.00	61971.14
1684.00	61959.44
1685.00	61915.75
1686.00	61903.27
1687.00	61811.21
1688.00	61686.38
1689.00	61644.25
1690.00	61623.18
1691.00	61711.34
1692.00	61794.82
1693.00	61905.61
1694.00	61903.27
1695.00	61936.04
1696.00	61915.75
1697.00	61939.16
1698.00	61841.63
1699.00	61751.91
1700.00	61678.58
1701.00	61620.06
1702.00	61599.00
1703.00	61496.02
1704.00	61478.85
1705.00	61464.03
1706.00	61463.25
1707.00	61396.15
1708.00	61307.99
1709.00	61201.89
1710.00	61197.99
1711.00	61193.31
1712.00	61331.40
1713.00	61358.70
1714.00	61378.99
1715.00	61325.94
1716.00	61260.40
1717.00	61226.85
1718.00	61131.67
1719.00	61102.03
1720.00	61123.87
1721.00	61155.08
1722.00	61228.41
1723.00	61197.21
1724.00	61198.77
1725.00	61098.90
1726.00	60977.20
1727.00	60921.02
1728.00	60918.68
1729.00	60995.92
1730.00	60981.88
1731.00	61060.68
1732.00	61119.97
1733.00	61084.86
1734.00	61036.49
1735.00	61021.67
1736.00	61030.25
1737.00	60955.35
1738.00	60857.83
1739.00	60874.21
1740.00	60788.39
1741.00	60733.78
1742.00	60636.26
1743.00	60571.50
1744.00	60524.69
1745.00	60431.07
1746.00	60479.44
1747.00	60444.33
1748.00	60481.78
1749.00	60500.51
1750.00	60364.76
1751.00	60259.43
1752.00	60059.71
1753.00	60035.52
1754.00	59978.57
1755.00	59970.77
1756.00	59981.69
1757.00	59987.93
1758.00	59892.75
1759.00	59764.02
1760.00	59690.68
1761.00	59816.29
1762.00	59961.40
1763.00	59881.05
1764.00	59678.98
1765.00	59485.50
1766.00	59473.79
1767.00	59429.32
1768.00	59422.30
1769.00	59399.68
1770.00	59465.99
1771.00	59346.62
1772.00	59244.42
1773.00	59143.00
1774.00	59192.93
1775.00	59222.58
1776.00	59228.04
1777.00	59133.63
1778.00	59129.73
1779.00	59070.44
1780.00	59071.22
1781.00	59046.25
1782.00	59012.71
1783.00	58982.28
1784.00	58944.05
1785.00	58887.88
1786.00	58837.17
1787.00	58760.71
1788.00	58731.84
1789.00	58680.35
1790.00	58656.95
1791.00	58706.88
1792.00	58795.82
1793.00	58680.35
1794.00	58564.10
1795.00	58451.76
1796.00	58342.53
1797.00	58317.57
1798.00	58285.58
1799.00	58418.99
1800.00	58224.73
1801.00	58121.74
1802.00	58016.42
1803.00	58058.55
1804.00	57970.39
1805.00	57883.79
1806.00	57783.93
1807.00	57725.41
1808.00	57539.73
1809.00	57407.88
1810.00	57294.75
1811.00	57291.63
1812.00	57215.96
1813.00	57078.64
1814.00	56910.91
1815.00	56844.59
1816.00	56794.66
1817.00	56704.16
1818.00	56570.75
1819.00	56459.18
1820.00	56369.46
1821.00	56350.74
1822.00	56345.28
1823.00	56439.68
1824.00	56422.51
1825.00	56392.87
1826.00	56223.57
1827.00	56245.41
1828.00	56227.47
1829.00	56241.51
1830.00	55779.65
1831.00	55684.47
1832.00	55557.30
1833.00	55761.70
1834.00	55540.13
1835.00	55352.89
1836.00	55011.17
1837.00	54942.52
1838.00	54943.30
1839.00	55070.46
1840.00	55009.61
1841.00	55003.37
1842.00	54940.96
1843.00	54777.12
1844.00	54537.60
1845.00	54436.18
1846.00	54280.92
1847.00	54131.13
1848.00	53870.55
1849.00	53627.13
1850.00	53473.44
1851.00	53312.72
1852.00	53368.90
1853.00	53396.98
1854.00	53407.90
1855.00	53380.60
1856.00	53177.75
1857.00	52989.73
1858.00	52777.52
1859.00	52580.13
1860.00	52516.16
1861.00	52357.78
1862.00	52243.10
1863.00	52231.40
1864.00	52117.49
1865.00	52134.65
1866.00	51853.79
1867.00	51836.62
1868.00	51575.26
1869.00	51457.46
1870.00	51293.62
1871.00	51157.09
1872.00	51089.99
1873.00	50834.88
1874.00	50842.68
1875.00	50758.42
1876.00	50808.35
1877.00	50586.00
1878.00	50385.49
1879.00	50184.99
1880.00	49911.92
1881.00	49624.04
1882.00	49386.08
1883.00	49184.02
1884.00	49136.43
1885.00	48989.75
1886.00	48988.19
1887.00	48921.88
1888.00	48806.41
1889.00	48823.57
1890.00	48511.50
1891.00	48325.04
1892.00	48042.62
1893.00	48038.72
1894.00	48073.82
1895.00	47871.76
1896.00	47809.34
1897.00	47651.75
1898.00	47562.03
1899.00	47414.57
1900.00	47134.49
1901.00	47015.90
1902.00	46600.07
1903.00	46579.00
1904.00	46366.01
1905.00	46595.38
1906.00	46324.66
1907.00	46180.33
1908.00	45778.54
1909.00	45584.27
1910.00	45522.64
1911.00	45360.36
1912.00	45257.38
1913.00	44953.11
1914.00	44648.84
1915.00	44503.73
1916.00	44446.77
1917.00	44515.43
1918.00	44154.21
1919.00	44028.60
1920.00	43487.93
1921.00	43386.51
1922.00	43035.43
1923.00	43077.56
1924.00	42946.49
1925.00	42787.33
1926.00	42501.01
1927.00	42125.74
1928.00	41834.74
1929.00	41679.48
1930.00	41620.97
1931.00	41598.34
1932.00	41620.19
1933.00	41663.88
1934.00	41308.90
1935.00	40943.77
1936.00	40489.71
1937.00	40377.36
1938.00	40222.89
1939.00	40055.93
1940.00	39759.46
1941.00	39434.91
1942.00	39170.43
1943.00	38968.36
1944.00	38756.93
1945.00	38646.93
1946.00	38513.52
1947.00	38330.95
1948.00	38058.67
1949.00	38019.66
1950.00	37929.16
1951.00	37789.51
1952.00	37400.20
1953.00	36994.51
1954.00	36842.37
1955.00	36613.78
1956.00	36545.90
1957.00	36209.65
1958.00	35984.96
1959.00	35662.74
1960.00	35385.00
1961.00	35190.73
1962.00	34983.99
1963.00	34862.28
1964.00	34629.79
1965.00	34392.61
1966.00	34181.96
1967.00	34049.33
1968.00	34028.27
1969.00	33819.96
1970.00	33390.08
1971.00	32981.27
1972.00	32765.16
1973.00	32652.81
1974.00	32535.79
1975.00	32154.28
1976.00	31833.63
1977.00	31430.27
1978.00	31217.29
1979.00	31065.93
1980.00	31083.87
1981.00	30978.55
1982.00	30721.87
1983.00	30204.61
1984.00	29881.62
1985.00	29803.60
1986.00	29957.30
1987.00	29892.54
1988.00	29642.88
1989.00	29292.58
1990.00	29149.03
1991.00	28894.69
1992.00	28562.34
1993.00	28283.81
1994.00	28326.72
1995.00	28316.58
1996.00	28059.12
1997.00	27926.49
1998.00	27744.71
1999.00	27645.63
2000.00	27254.76
2001.00	26951.27
2002.00	26746.08
2003.00	26630.62
2004.00	26412.17
2005.00	26182.79
2006.00	25859.80
2007.00	25658.51
2008.00	25392.47
2009.00	25206.79
2010.00	24905.64
2011.00	24686.41
2012.00	24512.43
2013.00	24445.34
2014.00	24300.22
2015.00	24041.20
2016.00	23883.61
2017.00	23742.39
2018.00	23742.39
2019.00	23550.47
2020.00	23463.09
2021.00	23276.63
2022.00	23161.16
2023.00	22956.75
2024.00	22753.91
2025.00	22663.41
2026.00	22365.38
2027.00	21968.27
2028.00	21706.13
2029.00	21564.92
2030.00	21685.84
2031.00	21663.22
2032.00	21593.78
2033.00	21419.80
2034.00	21222.42
2035.00	21110.85
2036.00	20811.26
2037.00	20535.08
2038.00	20302.59
2039.00	20255.78
2040.00	20141.09
2041.00	20081.02
2042.00	19843.06
2043.00	19646.46
2044.00	19454.53
2045.00	19473.26
2046.00	19579.36
2047.00	19686.25
>>>>>End Processed Spectral Data<<<<<
