SpectraSuite Data File
++++++++++++++++++++++++++++++++++++
Date: Thu Nov 16 14:15:15 EST 2017
User: cheriyan
Dark Spectrum Present: No
Reference Spectrum Present: No
Number of Sampled Component Spectra: 1
Spectrometers: USB2+H05261
Integration Time (usec): 100000 (USB2+H05261)
Spectra Averaged: 1 (USB2+H05261)
Boxcar Smoothing: 1 (USB2+H05261)
Correct for Electrical Dark: No (USB2+H05261)
Strobe/Lamp Enabled: No (USB2+H05261)
Correct for Detector Non-linearity: No (USB2+H05261)
Correct for Stray Light: No (USB2+H05261)
Number of Pixels in Processed Spectrum: 2048
>>>>>Begin Processed Spectral Data<<<<<
0.00	393.21
1.00	393.21
2.00	349.52
3.00	301.15
4.00	244.98
5.00	265.26
6.00	235.61
7.00	234.83
8.00	198.95
9.00	227.03
10.00	223.13
11.00	231.71
12.00	237.95
13.00	225.47
14.00	234.05
15.00	215.33
16.00	242.64
17.00	230.93
18.00	255.90
19.00	252.78
20.00	266.04
21.00	266.04
22.00	286.33
23.00	319.87
24.00	411.93
25.00	494.63
26.00	559.39
27.00	576.55
28.00	596.06
29.00	628.82
30.00	612.44
31.00	620.24
32.00	592.16
33.00	622.58
34.00	643.65
35.00	677.98
36.00	683.44
37.00	674.85
38.00	644.43
39.00	643.65
40.00	638.19
41.00	672.51
42.00	692.02
43.00	692.02
44.00	668.61
45.00	660.81
46.00	665.49
47.00	697.48
48.00	713.08
49.00	694.36
50.00	691.24
51.00	663.93
52.00	712.30
53.00	692.80
54.00	720.88
55.00	730.25
56.00	755.21
57.00	750.53
58.00	743.51
59.00	725.57
60.00	727.13
61.00	727.91
62.00	742.73
63.00	744.29
64.00	724.01
65.00	731.81
66.00	734.15
67.00	760.67
68.00	774.72
69.00	772.38
70.00	807.48
71.00	815.29
72.00	829.33
73.00	772.38
74.00	766.92
75.00	756.77
76.00	770.82
77.00	769.26
78.00	765.36
79.00	770.82
80.00	771.60
81.00	773.94
82.00	776.28
83.00	792.66
84.00	815.29
85.00	813.73
86.00	781.74
87.00	787.98
88.00	781.74
89.00	835.57
90.00	850.39
91.00	879.26
92.00	841.03
93.00	805.14
94.00	800.46
95.00	825.43
96.00	850.39
97.00	832.45
98.00	821.53
99.00	816.07
100.00	816.85
101.00	802.02
102.00	824.65
103.00	843.37
104.00	863.66
105.00	823.87
106.00	833.23
107.00	873.02
108.00	912.03
109.00	919.05
110.00	873.02
111.00	845.71
112.00	842.59
113.00	852.74
114.00	873.02
115.00	878.48
116.00	905.79
117.00	908.13
118.00	892.52
119.00	898.77
120.00	903.45
121.00	942.46
122.00	947.92
123.00	939.34
124.00	950.26
125.00	931.53
126.00	950.26
127.00	940.12
128.00	993.95
129.00	1019.69
130.00	1005.65
131.00	958.06
132.00	958.06
133.00	972.10
134.00	1004.87
135.00	1004.09
136.00	1017.35
137.00	1018.91
138.00	1007.99
139.00	1016.57
140.00	1003.31
141.00	1021.25
142.00	1005.65
143.00	992.39
144.00	993.95
145.00	1040.76
146.00	1076.65
147.00	1086.01
148.00	1063.38
149.00	1065.72
150.00	1087.57
151.00	1086.01
152.00	1084.45
153.00	1051.68
154.00	1086.01
155.00	1096.93
156.00	1100.05
157.00	1073.53
158.00	1083.67
159.00	1109.41
160.00	1132.82
161.00	1132.82
162.00	1132.04
163.00	1130.48
164.00	1135.16
165.00	1122.68
166.00	1107.07
167.00	1091.47
168.00	1132.04
169.00	1137.50
170.00	1148.42
171.00	1158.57
172.00	1199.13
173.00	1242.04
174.00	1232.68
175.00	1196.01
176.00	1202.26
177.00	1204.60
178.00	1269.35
179.00	1258.43
180.00	1271.69
181.00	1228.00
182.00	1279.49
183.00	1296.66
184.00	1338.01
185.00	1267.01
186.00	1261.55
187.00	1267.79
188.00	1337.23
189.00	1334.11
190.00	1306.02
191.00	1266.23
192.00	1266.23
193.00	1282.61
194.00	1303.68
195.00	1309.14
196.00	1326.30
197.00	1346.59
198.00	1380.92
199.00	1407.44
200.00	1397.30
201.00	1402.76
202.00	1389.50
203.00	1369.99
204.00	1352.05
205.00	1397.30
206.00	1453.47
207.00	1475.32
208.00	1428.51
209.00	1432.41
210.00	1465.18
211.00	1489.36
212.00	1461.27
213.00	1444.89
214.00	1483.90
215.00	1513.55
216.00	1529.15
217.00	1537.73
218.00	1523.69
219.00	1483.90
220.00	1452.69
221.00	1454.25
222.00	1502.62
223.00	1523.69
224.00	1558.02
225.00	1568.16
226.00	1558.02
227.00	1556.46
228.00	1578.30
229.00	1572.84
230.00	1590.78
231.00	1575.18
232.00	1597.81
233.00	1590.78
234.00	1633.69
235.00	1655.54
236.00	1668.02
237.00	1633.69
238.00	1645.40
239.00	1678.16
240.00	1723.41
241.00	1738.24
242.00	1761.64
243.00	1735.90
244.00	1755.40
245.00	1717.17
246.00	1753.06
247.00	1752.28
248.00	1806.89
249.00	1810.79
250.00	1829.52
251.00	1842.00
252.00	1865.41
253.00	1884.13
254.00	1875.55
255.00	1903.64
256.00	1873.21
257.00	1877.11
258.00	1856.04
259.00	1892.71
260.00	1900.52
261.00	1941.08
262.00	1953.57
263.00	1992.58
264.00	1967.61
265.00	1973.07
266.00	1962.15
267.00	1993.36
268.00	1988.68
269.00	2007.40
270.00	2023.78
271.00	2067.47
272.00	2102.58
273.00	2129.89
274.00	2129.89
275.00	2118.96
276.00	2110.38
277.00	2118.96
278.00	2097.90
279.00	2083.86
280.00	2122.87
281.00	2160.31
282.00	2168.90
283.00	2162.66
284.00	2192.30
285.00	2228.97
286.00	2240.67
287.00	2248.47
288.00	2222.73
289.00	2246.13
290.00	2260.96
291.00	2287.48
292.00	2255.50
293.00	2232.87
294.00	2241.45
295.00	2269.54
296.00	2278.12
297.00	2303.87
298.00	2306.21
299.00	2317.91
300.00	2311.67
301.00	2323.37
302.00	2328.05
303.00	2329.61
304.00	2370.18
305.00	2369.40
306.00	2341.32
307.00	2328.05
308.00	2338.98
309.00	2360.82
310.00	2344.44
311.00	2418.55
312.00	2468.48
313.00	2461.46
314.00	2370.96
315.00	2367.84
316.00	2404.51
317.00	2427.92
318.00	2459.12
319.00	2464.58
320.00	2492.67
321.00	2491.11
322.00	2517.64
323.00	2542.60
324.00	2562.89
325.00	2579.27
326.00	2625.30
327.00	2616.72
328.00	2579.27
329.00	2571.47
330.00	2555.87
331.00	2586.29
332.00	2593.31
333.00	2608.14
334.00	2626.86
335.00	2628.42
336.00	2670.55
337.00	2654.95
338.00	2696.30
339.00	2704.10
340.00	2738.43
341.00	2751.69
342.00	2786.80
343.00	2820.35
344.00	2786.02
345.00	2783.68
346.00	2780.56
347.00	2782.12
348.00	2786.80
349.00	2744.67
350.00	2771.19
351.00	2780.56
352.00	2855.45
353.00	2932.69
354.00	2949.08
355.00	2937.37
356.00	2885.88
357.00	2888.22
358.00	2889.78
359.00	2920.99
360.00	2921.77
361.00	2988.86
362.00	2963.90
363.00	2956.88
364.00	2933.47
365.00	2972.48
366.00	3001.35
367.00	2995.11
368.00	3023.19
369.00	3034.11
370.00	3077.80
371.00	3027.87
372.00	3062.20
373.00	3061.42
374.00	3097.31
375.00	3094.97
376.00	3135.54
377.00	3151.92
378.00	3181.57
379.00	3208.87
380.00	3231.50
381.00	3247.10
382.00	3254.12
383.00	3314.20
384.00	3351.65
385.00	3385.98
386.00	3420.30
387.00	3385.98
388.00	3423.42
389.00	3453.07
390.00	3534.21
391.00	3523.29
392.00	3506.12
393.00	3562.30
394.00	3577.90
395.00	3620.03
396.00	3602.86
397.00	3609.11
398.00	3625.49
399.00	3655.14
400.00	3680.88
401.00	3735.50
402.00	3747.98
403.00	3778.40
404.00	3767.48
405.00	3790.11
406.00	3792.45
407.00	3765.92
408.00	3742.52
409.00	3792.45
410.00	3836.14
411.00	3925.86
412.00	3876.71
413.00	3890.75
414.00	3812.73
415.00	3847.84
416.00	3865.00
417.00	3926.64
418.00	3925.86
419.00	3872.81
420.00	3910.25
421.00	3973.45
422.00	4039.76
423.00	4013.24
424.00	3990.61
425.00	4011.68
426.00	4010.90
427.00	4021.82
428.00	3996.07
429.00	4021.04
430.00	4010.90
431.00	3984.37
432.00	4009.34
433.00	4047.57
434.00	4117.78
435.00	4083.45
436.00	4099.84
437.00	4131.05
438.00	4184.10
439.00	4179.42
440.00	4170.05
441.00	4208.28
442.00	4217.65
443.00	4235.59
444.00	4205.16
445.00	4265.24
446.00	4251.19
447.00	4278.50
448.00	4295.66
449.00	4296.44
450.00	4273.82
451.00	4241.83
452.00	4248.07
453.00	4343.25
454.00	4366.66
455.00	4433.75
456.00	4458.72
457.00	4468.08
458.00	4508.65
459.00	4493.05
460.00	4543.76
461.00	4497.73
462.00	4492.27
463.00	4489.15
464.00	4562.48
465.00	4621.78
466.00	4662.35
467.00	4722.42
468.00	4727.10
469.00	4752.85
470.00	4695.11
471.00	4714.62
472.00	4724.76
473.00	4795.76
474.00	4841.01
475.00	4869.09
476.00	4898.74
477.00	4926.05
478.00	4954.91
479.00	4985.34
480.00	4952.57
481.00	4983.00
482.00	4955.69
483.00	4965.06
484.00	4963.50
485.00	4965.06
486.00	5057.90
487.00	5065.70
488.00	5135.92
489.00	5124.21
490.00	5178.05
491.00	5167.12
492.00	5216.27
493.00	5227.98
494.00	5261.52
495.00	5198.33
496.00	5203.79
497.00	5213.93
498.00	5238.12
499.00	5276.35
500.00	5334.86
501.00	5415.22
502.00	5413.66
503.00	5466.71
504.00	5470.61
505.00	5518.98
506.00	5514.30
507.00	5548.63
508.00	5483.10
509.00	5451.11
510.00	5442.53
511.00	5543.95
512.00	5608.70
513.00	5630.55
514.00	5620.41
515.00	5690.62
516.00	5769.42
517.00	5860.70
518.00	5845.10
519.00	5771.76
520.00	5763.18
521.00	5770.20
522.00	5834.96
523.00	5855.24
524.00	5884.89
525.00	5945.74
526.00	5937.16
527.00	5960.56
528.00	5927.02
529.00	5962.90
530.00	5953.54
531.00	5983.97
532.00	5975.39
533.00	6000.35
534.00	5990.21
535.00	6063.55
536.00	6044.82
537.00	6054.97
538.00	6036.24
539.00	6076.03
540.00	6133.76
541.00	6159.51
542.00	6202.42
543.00	6272.64
544.00	6331.93
545.00	6356.11
546.00	6332.71
547.00	6342.85
548.00	6448.18
549.00	6534.78
550.00	6534.78
551.00	6448.96
552.00	6420.87
553.00	6432.57
554.00	6503.57
555.00	6580.81
556.00	6641.66
557.00	6626.84
558.00	6610.45
559.00	6677.55
560.00	6780.53
561.00	6868.69
562.00	6884.30
563.00	6892.88
564.00	6868.69
565.00	6912.38
566.00	7001.32
567.00	7055.94
568.00	7087.14
569.00	7030.97
570.00	7069.98
571.00	7134.73
572.00	7214.31
573.00	7209.63
574.00	7166.72
575.00	7177.64
576.00	7321.20
577.00	7367.23
578.00	7452.27
579.00	7412.48
580.00	7513.12
581.00	7551.35
582.00	7613.76
583.00	7632.49
584.00	7649.65
585.00	7736.25
586.00	7815.05
587.00	7882.92
588.00	7826.75
589.00	7865.76
590.00	7941.44
591.00	8086.55
592.00	8182.51
593.00	8249.61
594.00	8414.23
595.00	8514.87
596.00	8551.54
597.00	8605.37
598.00	8688.85
599.00	8840.98
600.00	8915.10
601.00	8908.08
602.00	8917.44
603.00	8891.70
604.00	8932.26
605.00	9010.28
606.00	9031.35
607.00	9063.33
608.00	9130.43
609.00	9208.45
610.00	9334.84
611.00	9302.07
612.00	9376.19
613.00	9438.60
614.00	9535.34
615.00	9595.42
616.00	9682.80
617.00	9801.38
618.00	9881.74
619.00	9911.39
620.00	10004.23
621.00	10171.19
622.00	10258.57
623.00	10355.31
624.00	10375.59
625.00	10515.25
626.00	10557.38
627.00	10665.04
628.00	10687.67
629.00	10861.65
630.00	10963.85
631.00	11093.36
632.00	11067.61
633.00	11234.57
634.00	11414.79
635.00	11502.95
636.00	11494.37
637.00	11481.11
638.00	11520.12
639.00	11531.04
640.00	11531.04
641.00	11625.44
642.00	11683.17
643.00	11751.83
644.00	11877.44
645.00	11978.08
646.00	12058.44
647.00	12117.73
648.00	12148.16
649.00	12320.58
650.00	12442.29
651.00	12661.52
652.00	12702.09
653.00	12821.45
654.00	12840.96
655.00	12944.72
656.00	13050.83
657.00	13234.95
658.00	13327.01
659.00	13392.55
660.00	13457.30
661.00	13607.09
662.00	13731.92
663.00	13823.98
664.00	13872.36
665.00	13896.54
666.00	13944.13
667.00	14042.43
668.00	14118.89
669.00	14244.50
670.00	14310.82
671.00	14403.66
672.00	14551.89
673.00	14661.12
674.00	14731.33
675.00	14710.27
676.00	14693.10
677.00	14779.70
678.00	14737.57
679.00	14941.20
680.00	15010.64
681.00	15323.49
682.00	15442.07
683.00	15590.31
684.00	15625.42
685.00	15738.54
686.00	15819.68
687.00	15929.69
688.00	15974.16
689.00	16073.24
690.00	16255.80
691.00	16340.06
692.00	16382.19
693.00	16366.59
694.00	16339.28
695.00	16407.94
696.00	16437.58
697.00	16720.01
698.00	16866.68
699.00	16989.95
700.00	16976.69
701.00	17084.35
702.00	17142.08
703.00	17177.19
704.00	17244.29
705.00	17363.65
706.00	17518.13
707.00	17642.96
708.00	17759.20
709.00	17922.26
710.00	18015.88
711.00	18068.94
712.00	18139.93
713.00	18224.19
714.00	18285.83
715.00	18285.83
716.00	18324.05
717.00	18494.91
718.00	18679.82
719.00	18798.40
720.00	18829.61
721.00	18739.89
722.00	18852.24
723.00	18952.88
724.00	18973.94
725.00	18893.58
726.00	18886.56
727.00	19077.71
728.00	19208.00
729.00	19296.16
730.00	19354.67
731.00	19501.34
732.00	19560.64
733.00	19602.77
734.00	19504.46
735.00	19602.77
736.00	19548.15
737.00	19648.02
738.00	19630.85
739.00	19853.98
740.00	20048.25
741.00	20287.76
742.00	20448.48
743.00	20534.30
744.00	20506.99
745.00	20493.73
746.00	20437.56
747.00	20477.35
748.00	20555.36
749.00	20666.93
750.00	20613.88
751.00	20587.35
752.00	20653.67
753.00	20891.62
754.00	21028.15
755.00	21195.89
756.00	21300.44
757.00	21332.42
758.00	21289.51
759.00	21266.11
760.00	21426.04
761.00	21571.94
762.00	21756.06
763.00	21752.16
764.00	21722.51
765.00	21703.01
766.00	21783.37
767.00	21916.00
768.00	21974.51
769.00	22011.18
770.00	22143.03
771.00	22307.65
772.00	22525.32
773.00	22533.12
774.00	22632.98
775.00	22758.59
776.00	22774.97
777.00	22804.62
778.00	22765.61
779.00	22982.50
780.00	23030.09
781.00	23190.03
782.00	23245.42
783.00	23395.21
784.00	23300.81
785.00	23370.25
786.00	23397.56
787.00	23658.92
788.00	23660.48
789.00	23825.09
790.00	23845.38
791.00	23982.69
792.00	23925.74
793.00	23944.46
794.00	23970.21
795.00	24011.56
796.00	24127.02
797.00	24261.21
798.00	24487.46
799.00	24648.96
800.00	24747.26
801.00	24883.80
802.00	24907.20
803.00	24936.07
804.00	24801.88
805.00	25028.13
806.00	25149.84
807.00	25226.29
808.00	25127.99
809.00	25191.97
810.00	25408.86
811.00	25526.66
812.00	25642.13
813.00	25524.32
814.00	25577.37
815.00	25593.76
816.00	25802.07
817.00	25916.75
818.00	25990.09
819.00	26097.75
820.00	26125.84
821.00	26139.88
822.00	26194.50
823.00	26221.80
824.00	26349.75
825.00	26528.41
826.00	26613.45
827.00	26717.22
828.00	26641.54
829.00	26627.49
830.00	26644.66
831.00	26712.53
832.00	26919.28
833.00	26969.99
834.00	27168.16
835.00	27213.41
836.00	27361.64
837.00	27456.04
838.00	27498.17
839.00	27530.94
840.00	27489.59
841.00	27660.45
842.00	27761.09
843.00	27896.85
844.00	28000.61
845.00	28121.54
846.00	28175.37
847.00	28192.53
848.00	28325.94
849.00	28325.94
850.00	28241.68
851.00	28173.81
852.00	28101.25
853.00	28189.41
854.00	28312.68
855.00	28499.14
856.00	28687.95
857.00	28717.59
858.00	28831.50
859.00	28696.53
860.00	28685.61
861.00	28702.77
862.00	28944.62
863.00	29075.69
864.00	29238.75
865.00	29351.88
866.00	29435.36
867.00	29520.40
868.00	29673.31
869.00	29866.02
870.00	29905.02
871.00	29809.06
872.00	29757.57
873.00	29882.40
874.00	29910.49
875.00	29946.37
876.00	29786.44
877.00	29744.31
878.00	29647.57
879.00	29823.89
880.00	29850.41
881.00	30032.97
882.00	30051.70
883.00	30178.09
884.00	30147.66
885.00	29987.72
886.00	30075.88
887.00	30139.08
888.00	30444.13
889.00	30565.06
890.00	30637.61
891.00	30604.06
892.00	30580.66
893.00	30570.52
894.00	30669.60
895.00	30700.03
896.00	30830.32
897.00	30888.83
898.00	31126.00
899.00	31225.09
900.00	31309.35
901.00	31353.82
902.00	31619.86
903.00	31823.48
904.00	31947.53
905.00	31951.43
906.00	31866.39
907.00	31747.81
908.00	31601.91
909.00	32100.45
910.00	32264.28
911.00	32400.04
912.00	31875.76
913.00	31906.96
914.00	31916.33
915.00	32086.40
916.00	32049.74
917.00	32191.73
918.00	32212.79
919.00	32126.97
920.00	32036.47
921.00	32080.94
922.00	32355.57
923.00	32494.44
924.00	32716.79
925.00	32579.48
926.00	32687.92
927.00	32506.92
928.00	32476.49
929.00	32600.54
930.00	32847.08
931.00	33189.58
932.00	33171.63
933.00	33156.03
934.00	33065.53
935.00	32866.58
936.00	32884.53
937.00	33063.97
938.00	33200.50
939.00	33366.68
940.00	33326.11
941.00	33319.09
942.00	33303.48
943.00	33372.92
944.00	33601.51
945.00	33509.45
946.00	33548.46
947.00	33446.26
948.00	33823.08
949.00	34023.59
950.00	34345.80
951.00	34263.88
952.00	34083.66
953.00	33898.76
954.00	33883.94
955.00	34122.67
956.00	34423.82
957.00	34579.85
958.00	34746.03
959.00	34994.91
960.00	34924.69
961.00	34841.21
962.00	34642.27
963.00	34797.52
964.00	34951.22
965.00	34982.43
966.00	35107.26
967.00	35289.82
968.00	35550.40
969.00	35465.36
970.00	35309.32
971.00	35251.59
972.00	35399.04
973.00	35499.69
974.00	35528.55
975.00	35593.31
976.00	35566.78
977.00	35488.76
978.00	35323.36
979.00	35395.14
980.00	35316.34
981.00	35654.94
982.00	35631.54
983.00	36027.87
984.00	36155.82
985.00	36469.45
986.00	36454.62
987.00	36174.54
988.00	36089.50
989.00	35825.02
990.00	36051.27
991.00	35913.96
992.00	36087.94
993.00	35926.44
994.00	36169.86
995.00	36389.87
996.00	36591.94
997.00	36813.51
998.00	37002.31
999.00	37262.89
1000.00	37169.27
1001.00	37118.56
1002.00	36988.27
1003.00	37052.24
1004.00	37057.70
1005.00	37065.50
1006.00	37197.35
1007.00	37305.02
1008.00	37565.60
1009.00	37352.61
1010.00	37409.56
1011.00	37301.90
1012.00	37512.55
1013.00	37512.55
1014.00	37518.79
1015.00	37528.15
1016.00	37538.29
1017.00	37693.55
1018.00	37789.51
1019.00	38103.14
1020.00	38004.06
1021.00	37984.55
1022.00	37865.19
1023.00	38025.12
1024.00	38132.01
1025.00	38169.46
1026.00	38333.29
1027.00	38451.88
1028.00	38559.55
1029.00	38403.51
1030.00	38345.00
1031.00	38540.04
1032.00	38738.21
1033.00	38901.26
1034.00	38653.17
1035.00	38753.03
1036.00	38695.30
1037.00	38750.69
1038.00	38759.27
1039.00	38760.05
1040.00	38844.31
1041.00	39149.36
1042.00	39413.84
1043.00	39596.40
1044.00	39380.29
1045.00	39375.61
1046.00	39380.29
1047.00	39320.22
1048.00	39341.28
1049.00	39338.16
1050.00	39697.83
1051.00	39756.34
1052.00	39992.73
1053.00	39989.61
1054.00	40105.86
1055.00	40030.18
1056.00	39974.79
1057.00	40075.43
1058.00	40274.38
1059.00	40261.12
1060.00	40399.99
1061.00	40293.10
1062.00	40464.74
1063.00	40414.03
1064.00	40492.83
1065.00	40463.18
1066.00	40516.23
1067.00	40538.08
1068.00	40560.70
1069.00	40523.26
1070.00	40545.88
1071.00	40655.11
1072.00	40770.57
1073.00	40825.18
1074.00	40771.35
1075.00	40613.76
1076.00	40552.90
1077.00	40603.61
1078.00	40684.75
1079.00	40724.54
1080.00	40785.40
1081.00	40934.41
1082.00	41120.87
1083.00	41141.16
1084.00	41163.78
1085.00	41071.72
1086.00	41174.70
1087.00	41195.77
1088.00	41394.71
1089.00	41645.15
1090.00	41748.14
1091.00	41753.60
1092.00	41619.41
1093.00	41446.21
1094.00	41553.09
1095.00	41641.25
1096.00	41902.61
1097.00	42054.75
1098.00	42142.13
1099.00	42186.60
1100.00	42016.52
1101.00	41982.97
1102.00	42032.12
1103.00	42191.28
1104.00	42262.27
1105.00	42424.55
1106.00	42385.54
1107.00	42289.58
1108.00	41986.09
1109.00	42019.64
1110.00	42196.74
1111.00	42326.25
1112.00	42373.84
1113.00	42172.55
1114.00	42265.39
1115.00	42274.76
1116.00	42398.80
1117.00	42377.74
1118.00	42323.13
1119.00	42376.96
1120.00	42437.03
1121.00	42476.04
1122.00	42560.30
1123.00	42520.51
1124.00	42593.07
1125.00	42522.07
1126.00	42308.30
1127.00	42308.30
1128.00	42215.46
1129.00	42495.55
1130.00	42686.69
1131.00	43067.42
1132.00	43194.59
1133.00	43172.74
1134.00	43044.01
1135.00	43054.15
1136.00	42875.49
1137.00	42897.34
1138.00	42949.61
1139.00	43087.70
1140.00	43020.61
1141.00	43100.18
1142.00	43193.81
1143.00	43514.46
1144.00	43565.17
1145.00	43659.57
1146.00	43508.22
1147.00	43143.09
1148.00	42885.64
1149.00	42788.11
1150.00	43148.56
1151.00	43365.45
1152.00	43565.95
1153.00	43597.94
1154.00	43565.95
1155.00	43338.14
1156.00	43197.71
1157.00	42950.39
1158.00	42980.04
1159.00	43019.05
1160.00	43335.80
1161.00	43650.99
1162.00	43833.55
1163.00	43873.34
1164.00	43634.61
1165.00	43611.98
1166.00	43506.66
1167.00	43533.96
1168.00	43733.69
1169.00	43926.39
1170.00	43985.69
1171.00	43838.23
1172.00	43686.88
1173.00	43687.66
1174.00	43459.07
1175.00	43414.60
1176.00	43434.10
1177.00	43465.31
1178.00	43228.91
1179.00	43129.83
1180.00	43290.55
1181.00	43542.55
1182.00	43606.52
1183.00	43563.61
1184.00	43702.48
1185.00	43707.16
1186.00	43656.45
1187.00	43585.46
1188.00	43767.24
1189.00	43785.18
1190.00	43938.10
1191.00	43956.04
1192.00	44069.17
1193.00	44115.20
1194.00	44047.32
1195.00	44090.23
1196.00	43973.20
1197.00	43942.78
1198.00	43967.74
1199.00	44144.84
1200.00	44254.07
1201.00	44257.97
1202.00	44227.54
1203.00	44280.60
1204.00	44280.60
1205.00	44338.33
1206.00	44395.28
1207.00	44539.61
1208.00	44344.57
1209.00	44208.04
1210.00	44113.64
1211.00	44175.27
1212.00	44267.33
1213.00	44314.14
1214.00	44252.51
1215.00	44249.39
1216.00	44059.02
1217.00	44104.27
1218.00	44017.67
1219.00	44099.59
1220.00	43957.60
1221.00	43643.19
1222.00	43483.25
1223.00	43491.05
1224.00	43743.05
1225.00	43814.83
1226.00	43941.22
1227.00	44102.71
1228.00	44240.03
1229.00	44165.13
1230.00	43939.66
1231.00	44066.05
1232.00	44324.29
1233.00	44461.60
1234.00	44269.67
1235.00	44154.99
1236.00	44410.88
1237.00	44434.29
1238.00	44478.76
1239.00	44494.36
1240.00	44602.03
1241.00	44847.00
1242.00	45042.83
1243.00	45232.41
1244.00	45062.33
1245.00	45020.20
1246.00	45080.28
1247.00	45336.18
1248.00	45255.04
1249.00	45132.55
1250.00	44960.13
1251.00	44996.80
1252.00	45079.50
1253.00	45137.23
1254.00	44963.25
1255.00	44930.48
1256.00	45074.04
1257.00	45239.43
1258.00	45358.80
1259.00	45128.65
1260.00	45155.96
1261.00	45248.80
1262.00	45631.08
1263.00	45934.57
1264.00	46106.99
1265.00	46104.65
1266.00	46014.93
1267.00	46044.58
1268.00	46107.77
1269.00	46117.14
1270.00	45802.72
1271.00	45632.64
1272.00	45600.66
1273.00	45794.14
1274.00	46025.07
1275.00	45949.40
1276.00	45988.41
1277.00	45976.70
1278.00	46062.52
1279.00	46121.04
1280.00	45789.46
1281.00	45981.38
1282.00	46132.74
1283.00	46388.64
1284.00	46266.15
1285.00	46007.13
1286.00	46071.89
1287.00	45940.04
1288.00	46103.09
1289.00	46336.37
1290.00	46547.01
1291.00	46504.88
1292.00	46332.46
1293.00	46442.47
1294.00	46618.01
1295.00	46569.64
1296.00	46412.82
1297.00	46309.06
1298.00	46496.30
1299.00	46694.47
1300.00	46865.33
1301.00	46914.48
1302.00	46896.53
1303.00	46863.77
1304.00	46812.27
1305.00	46796.67
1306.00	46724.11
1307.00	46566.52
1308.00	46557.94
1309.00	46370.69
1310.00	46516.59
1311.00	46535.31
1312.00	46902.78
1313.00	47110.30
1314.00	47226.55
1315.00	47265.56
1316.00	47085.34
1317.00	47129.81
1318.00	47135.27
1319.00	47181.30
1320.00	47198.46
1321.00	47210.17
1322.00	47267.12
1323.00	47344.36
1324.00	47404.43
1325.00	47543.30
1326.00	47680.61
1327.00	47761.75
1328.00	47788.28
1329.00	47671.25
1330.00	47583.09
1331.00	47631.46
1332.00	47441.10
1333.00	47268.68
1334.00	47090.02
1335.00	47237.47
1336.00	47304.57
1337.00	47193.78
1338.00	46921.50
1339.00	46722.55
1340.00	46627.37
1341.00	46872.35
1342.00	47084.56
1343.00	47505.85
1344.00	47476.21
1345.00	47529.26
1346.00	47270.24
1347.00	47232.79
1348.00	47139.17
1349.00	47232.01
1350.00	47152.43
1351.00	47240.59
1352.00	47036.97
1353.00	47200.02
1354.00	47159.45
1355.00	47302.23
1356.00	47292.86
1357.00	47498.05
1358.00	47484.79
1359.00	47675.15
1360.00	47775.80
1361.00	47994.25
1362.00	47911.55
1363.00	47766.43
1364.00	47629.12
1365.00	47501.95
1366.00	47342.80
1367.00	47314.71
1368.00	47476.21
1369.00	47617.42
1370.00	47725.08
1371.00	47590.11
1372.00	47764.87
1373.00	47962.26
1374.00	48115.17
1375.00	48105.03
1376.00	48030.13
1377.00	48012.19
1378.00	47851.47
1379.00	47654.87
1380.00	47776.58
1381.00	47771.11
1382.00	47940.41
1383.00	47785.94
1384.00	47560.47
1385.00	47249.95
1386.00	47037.75
1387.00	47100.94
1388.00	47336.55
1389.00	47508.19
1390.00	47689.20
1391.00	47675.15
1392.00	47630.68
1393.00	47592.45
1394.00	47573.73
1395.00	47653.31
1396.00	47718.06
1397.00	47631.46
1398.00	47600.26
1399.00	47434.86
1400.00	47523.80
1401.00	47339.68
1402.00	47430.18
1403.00	47413.79
1404.00	47482.45
1405.00	47431.74
1406.00	47379.46
1407.00	47473.87
1408.00	47517.56
1409.00	47516.78
1410.00	47569.05
1411.00	47630.68
1412.00	47827.29
1413.00	47879.56
1414.00	48002.83
1415.00	48027.01
1416.00	48083.97
1417.00	48025.45
1418.00	47833.53
1419.00	47775.80
1420.00	47773.45
1421.00	47891.26
1422.00	47899.84
1423.00	47892.04
1424.00	47781.26
1425.00	47792.18
1426.00	47780.48
1427.00	47854.59
1428.00	47914.67
1429.00	47799.98
1430.00	47841.33
1431.00	47599.47
1432.00	47639.26
1433.00	47528.48
1434.00	47452.80
1435.00	47381.02
1436.00	47294.42
1437.00	47324.07
1438.00	47261.66
1439.00	47136.83
1440.00	47196.12
1441.00	47277.26
1442.00	47505.85
1443.00	47370.10
1444.00	47365.42
1445.00	47323.29
1446.00	47492.59
1447.00	47475.43
1448.00	47493.37
1449.00	47512.09
1450.00	47594.79
1451.00	47593.23
1452.00	47512.88
1453.00	47406.77
1454.00	47274.92
1455.00	47256.20
1456.00	47185.20
1457.00	47240.59
1458.00	47339.68
1459.00	47279.60
1460.00	47196.90
1461.00	46834.12
1462.00	46711.63
1463.00	46657.02
1464.00	46937.88
1465.00	47047.89
1466.00	47196.12
1467.00	47146.97
1468.00	47309.25
1469.00	47430.18
1470.00	47605.72
1471.00	47740.69
1472.00	47700.90
1473.00	47583.87
1474.00	47434.08
1475.00	47338.12
1476.00	47265.56
1477.00	47238.25
1478.00	47281.94
1479.00	47377.12
1480.00	47232.79
1481.00	47129.03
1482.00	46841.92
1483.00	46719.43
1484.00	46539.21
1485.00	46508.79
1486.00	46536.09
1487.00	46559.50
1488.00	46647.66
1489.00	46728.02
1490.00	46847.38
1491.00	47103.28
1492.00	47237.47
1493.00	47271.02
1494.00	47173.50
1495.00	47221.09
1496.00	47384.15
1497.00	47389.61
1498.00	47254.64
1499.00	47068.17
1500.00	47022.14
1501.00	46901.22
1502.00	46907.46
1503.00	46702.27
1504.00	46749.08
1505.00	46631.27
1506.00	46745.96
1507.00	46743.62
1508.00	46710.85
1509.00	46734.26
1510.00	46695.25
1511.00	46787.31
1512.00	46694.47
1513.00	46633.61
1514.00	46409.70
1515.00	46412.04
1516.00	46385.52
1517.00	46421.41
1518.00	46291.12
1519.00	46219.34
1520.00	46276.29
1521.00	46286.43
1522.00	46255.23
1523.00	46059.40
1524.00	46090.61
1525.00	46220.12
1526.00	46351.19
1527.00	46213.88
1528.00	46096.85
1529.00	46082.81
1530.00	46278.63
1531.00	46272.39
1532.00	46366.01
1533.00	46325.44
1534.00	46340.27
1535.00	46285.65
1536.00	46251.33
1537.00	46426.09
1538.00	46482.26
1539.00	46486.94
1540.00	46473.68
1541.00	46671.06
1542.00	46800.57
1543.00	46814.62
1544.00	46642.20
1545.00	46550.91
1546.00	46481.48
1547.00	46408.14
1548.00	46441.69
1549.00	46413.60
1550.00	46449.49
1551.00	46398.78
1552.00	46376.15
1553.00	46268.49
1554.00	46285.65
1555.00	46344.17
1556.00	46362.89
1557.00	46156.92
1558.00	46121.04
1559.00	46167.07
1560.00	46232.60
1561.00	46057.84
1562.00	45981.38
1563.00	45885.42
1564.00	45894.78
1565.00	45722.37
1566.00	45646.69
1567.00	45528.10
1568.00	45464.91
1569.00	45404.05
1570.00	45411.85
1571.00	45347.10
1572.00	45409.51
1573.00	45429.02
1574.00	45635.77
1575.00	45755.13
1576.00	45737.97
1577.00	45566.33
1578.00	45393.13
1579.00	45331.50
1580.00	45483.63
1581.00	45659.95
1582.00	45773.08
1583.00	45762.93
1584.00	45660.73
1585.00	45737.19
1586.00	45639.67
1587.00	45416.54
1588.00	45377.53
1589.00	45297.95
1590.00	45629.52
1591.00	45583.49
1592.00	45651.37
1593.00	45521.86
1594.00	45280.00
1595.00	45146.59
1596.00	45262.06
1597.00	45272.20
1598.00	45404.83
1599.00	45179.36
1600.00	45219.15
1601.00	45071.70
1602.00	45094.32
1603.00	45161.42
1604.00	45443.06
1605.00	45347.10
1606.00	45212.13
1607.00	44942.19
1608.00	45049.85
1609.00	45080.28
1610.00	45262.06
1611.00	45203.55
1612.00	45232.41
1613.00	45127.09
1614.00	45095.88
1615.00	45095.88
1616.00	44925.80
1617.00	44914.88
1618.00	44949.21
1619.00	44967.15
1620.00	45166.10
1621.00	45281.56
1622.00	45503.92
1623.00	45272.20
1624.00	45219.93
1625.00	45089.64
1626.00	45050.63
1627.00	44805.66
1628.00	44605.15
1629.00	44690.19
1630.00	44840.76
1631.00	45040.49
1632.00	45000.70
1633.00	45074.04
1634.00	45109.14
1635.00	45184.82
1636.00	45020.98
1637.00	45088.08
1638.00	45067.80
1639.00	45162.98
1640.00	44896.94
1641.00	44819.70
1642.00	44684.73
1643.00	44803.31
1644.00	44708.13
1645.00	44692.53
1646.00	44594.23
1647.00	44481.10
1648.00	44454.58
1649.00	44300.88
1650.00	44418.69
1651.00	44263.43
1652.00	44457.70
1653.00	44607.49
1654.00	44740.12
1655.00	44724.52
1656.00	44478.76
1657.00	44480.32
1658.00	44309.46
1659.00	44245.49
1660.00	44234.56
1661.00	44403.08
1662.00	44428.83
1663.00	44383.58
1664.00	44429.61
1665.00	44413.23
1666.00	44577.06
1667.00	44435.85
1668.00	44537.27
1669.00	44250.17
1670.00	44140.16
1671.00	44112.08
1672.00	44256.41
1673.00	44370.32
1674.00	44406.20
1675.00	44360.95
1676.00	44318.82
1677.00	44112.86
1678.00	44100.37
1679.00	44149.53
1680.00	44357.05
1681.00	44530.25
1682.00	44508.41
1683.00	44367.20
1684.00	44114.42
1685.00	44064.49
1686.00	43986.47
1687.00	43863.20
1688.00	43814.05
1689.00	43865.54
1690.00	43945.12
1691.00	43801.57
1692.00	43607.30
1693.00	43335.80
1694.00	43135.29
1695.00	43014.37
1696.00	42904.36
1697.00	42916.06
1698.00	43015.93
1699.00	43066.64
1700.00	43087.70
1701.00	43010.46
1702.00	43126.71
1703.00	43232.82
1704.00	43335.80
1705.00	43345.16
1706.00	43288.99
1707.00	43185.22
1708.00	43157.14
1709.00	43083.02
1710.00	43161.82
1711.00	43026.07
1712.00	42992.52
1713.00	42852.87
1714.00	42792.01
1715.00	42683.57
1716.00	42574.34
1717.00	42389.44
1718.00	42297.38
1719.00	42295.82
1720.00	42476.82
1721.00	42547.04
1722.00	42560.30
1723.00	42524.41
1724.00	42156.95
1725.00	41768.42
1726.00	41469.61
1727.00	41563.23
1728.00	41585.08
1729.00	41570.25
1730.00	41487.56
1731.00	41606.14
1732.00	41652.17
1733.00	41432.94
1734.00	41432.94
1735.00	41277.69
1736.00	41409.54
1737.00	41153.64
1738.00	41350.24
1739.00	41648.27
1740.00	41900.27
1741.00	41903.39
1742.00	41620.19
1743.00	41088.10
1744.00	40627.02
1745.00	40237.71
1746.00	40189.34
1747.00	40061.39
1748.00	40027.84
1749.00	39952.16
1750.00	39793.01
1751.00	39703.29
1752.00	39392.78
1753.00	39266.39
1754.00	39123.61
1755.00	39218.02
1756.00	39314.76
1757.00	39115.81
1758.00	38898.14
1759.00	38694.52
1760.00	38806.86
1761.00	38877.08
1762.00	38909.07
1763.00	38829.49
1764.00	38907.51
1765.00	38957.44
1766.00	38908.29
1767.00	38779.56
1768.00	38651.61
1769.00	38654.73
1770.00	38724.16
1771.00	38601.68
1772.00	38389.47
1773.00	38274.00
1774.00	38378.54
1775.00	38522.10
1776.00	38355.14
1777.00	37962.71
1778.00	37812.91
1779.00	37644.40
1780.00	37489.92
1781.00	37093.59
1782.00	36932.87
1783.00	36933.65
1784.00	37011.67
1785.00	37018.69
1786.00	37063.16
1787.00	37021.81
1788.00	36994.51
1789.00	36889.96
1790.00	36767.48
1791.00	36593.50
1792.00	36226.03
1793.00	35974.03
1794.00	35606.57
1795.00	35534.01
1796.00	35359.25
1797.00	35348.33
1798.00	35380.32
1799.00	35423.23
1800.00	35331.95
1801.00	35242.23
1802.00	35054.20
1803.00	35005.05
1804.00	34905.97
1805.00	34838.09
1806.00	34650.85
1807.00	34311.47
1808.00	34022.81
1809.00	33767.69
1810.00	33816.06
1811.00	33759.89
1812.00	33748.96
1813.00	33433.77
1814.00	33252.77
1815.00	33116.24
1816.00	32999.21
1817.00	32908.71
1818.00	32755.02
1819.00	32562.31
1820.00	32285.35
1821.00	32187.05
1822.00	32141.80
1823.00	32045.05
1824.00	31866.39
1825.00	31608.15
1826.00	31398.29
1827.00	31155.65
1828.00	31076.85
1829.00	31103.38
1830.00	30856.06
1831.00	30829.54
1832.00	30786.63
1833.00	30901.31
1834.00	30681.30
1835.00	30433.21
1836.00	29984.60
1837.00	29805.16
1838.00	29572.67
1839.00	29578.13
1840.00	29195.84
1841.00	29060.09
1842.00	28886.11
1843.00	28811.99
1844.00	28543.61
1845.00	28430.49
1846.00	28346.23
1847.00	28155.86
1848.00	28043.52
1849.00	27807.90
1850.00	27791.52
1851.00	27599.60
1852.00	27515.34
1853.00	27348.38
1854.00	27130.71
1855.00	26965.31
1856.00	26636.86
1857.00	26532.31
1858.00	26304.50
1859.00	26107.12
1860.00	25804.41
1861.00	25729.51
1862.00	25671.78
1863.00	25693.62
1864.00	25649.93
1865.00	25605.46
1866.00	25429.14
1867.00	25151.40
1868.00	24922.02
1869.00	24655.98
1870.00	24439.09
1871.00	24386.04
1872.00	24290.86
1873.00	24040.42
1874.00	23770.48
1875.00	23638.63
1876.00	23547.35
1877.00	23390.53
1878.00	23140.88
1879.00	23108.11
1880.00	23012.93
1881.00	22951.29
1882.00	22828.81
1883.00	22617.38
1884.00	22539.36
1885.00	22380.98
1886.00	22362.26
1887.00	22114.94
1888.00	21987.77
1889.00	21768.54
1890.00	21707.69
1891.00	21542.29
1892.00	21461.15
1893.00	21224.76
1894.00	21016.45
1895.00	20826.87
1896.00	20706.72
1897.00	20588.91
1898.00	20447.70
1899.00	20422.73
1900.00	20349.40
1901.00	20294.79
1902.00	20049.03
1903.00	19907.82
1904.00	19704.19
1905.00	19648.02
1906.00	19523.97
1907.00	19337.51
1908.00	19222.04
1909.00	19071.47
1910.00	19032.46
1911.00	18834.29
1912.00	18819.47
1913.00	18731.31
1914.00	18672.01
1915.00	18535.48
1916.00	18419.24
1917.00	18272.56
1918.00	18071.28
1919.00	17985.46
1920.00	17859.85
1921.00	17828.64
1922.00	17646.08
1923.00	17554.02
1924.00	17499.41
1925.00	17407.34
1926.00	17344.15
1927.00	17074.99
1928.00	17012.57
1929.00	16809.73
1930.00	16779.30
1931.00	16548.37
1932.00	16373.61
1933.00	16297.15
1934.00	16275.31
1935.00	16370.49
1936.00	16113.03
1937.00	16028.77
1938.00	15936.71
1939.00	15956.99
1940.00	15921.10
1941.00	15728.40
1942.00	15662.08
1943.00	15570.80
1944.00	15537.26
1945.00	15386.68
1946.00	15190.86
1947.00	15055.89
1948.00	15021.56
1949.00	14934.96
1950.00	14896.73
1951.00	14709.49
1952.00	14640.83
1953.00	14445.01
1954.00	14423.94
1955.00	14358.41
1956.00	14366.21
1957.00	14295.21
1958.00	14124.35
1959.00	13922.29
1960.00	13815.40
1961.00	13777.17
1962.00	13717.88
1963.00	13625.82
1964.00	13522.84
1965.00	13449.50
1966.00	13369.92
1967.00	13197.50
1968.00	13155.37
1969.00	13014.16
1970.00	13007.92
1971.00	12899.47
1972.00	12784.01
1973.00	12802.73
1974.00	12829.26
1975.00	12861.24
1976.00	12742.66
1977.00	12588.96
1978.00	12513.28
1979.00	12422.78
1980.00	12400.94
1981.00	12351.79
1982.00	12312.78
1983.00	12258.95
1984.00	12158.30
1985.00	12121.63
1986.00	12024.11
1987.00	11899.28
1988.00	11739.35
1989.00	11629.34
1990.00	11591.89
1991.00	11508.41
1992.00	11473.31
1993.00	11436.64
1994.00	11438.98
1995.00	11348.48
1996.00	11179.18
1997.00	11076.20
1998.00	10993.50
1999.00	10968.53
2000.00	10905.34
2001.00	10817.18
2002.00	10817.96
2003.00	10765.68
2004.00	10825.76
2005.00	10807.03
2006.00	10750.08
2007.00	10625.25
2008.00	10532.41
2009.00	10522.27
2010.00	10555.82
2011.00	10493.40
2012.00	10450.49
2013.00	10368.57
2014.00	10335.03
2015.00	10253.89
2016.00	10167.29
2017.00	10096.29
2018.00	10079.91
2019.00	10029.98
2020.00	9933.23
2021.00	9841.95
2022.00	9777.20
2023.00	9830.25
2024.00	9795.14
2025.00	9795.14
2026.00	9693.72
2027.00	9691.38
2028.00	9628.18
2029.00	9592.30
2030.00	9495.55
2031.00	9471.37
2032.00	9405.05
2033.00	9318.45
2034.00	9232.63
2035.00	9187.38
2036.00	9152.27
2037.00	9092.20
2038.00	8997.02
2039.00	8950.21
2040.00	8842.54
2041.00	8910.42
2042.00	8837.08
2043.00	8830.84
2044.00	8708.35
2045.00	8700.55
2046.00	8744.24
2047.00	8868.29
>>>>>End Processed Spectral Data<<<<<
