SpectraSuite Data File
++++++++++++++++++++++++++++++++++++
Date: Thu Nov 16 14:04:59 EST 2017
User: cheriyan
Dark Spectrum Present: No
Reference Spectrum Present: No
Number of Sampled Component Spectra: 1
Spectrometers: USB2+H05261
Integration Time (usec): 100000 (USB2+H05261)
Spectra Averaged: 1 (USB2+H05261)
Boxcar Smoothing: 1 (USB2+H05261)
Correct for Electrical Dark: No (USB2+H05261)
Strobe/Lamp Enabled: No (USB2+H05261)
Correct for Detector Non-linearity: No (USB2+H05261)
Correct for Stray Light: No (USB2+H05261)
Number of Pixels in Processed Spectrum: 2048
>>>>>Begin Processed Spectral Data<<<<<
0.00	372.15
1.00	372.15
2.00	354.20
3.00	327.67
4.00	280.86
5.00	258.24
6.00	238.73
7.00	249.66
8.00	252.00
9.00	256.68
10.00	252.78
11.00	251.22
12.00	264.48
13.00	275.40
14.00	242.64
15.00	226.25
16.00	220.79
17.00	266.82
18.00	267.60
19.00	278.52
20.00	284.77
21.00	288.67
22.00	306.61
23.00	358.88
24.00	541.44
25.00	683.44
26.00	809.05
27.00	837.91
28.00	873.80
29.00	846.49
30.00	845.71
31.00	841.03
32.00	870.68
33.00	885.50
34.00	873.02
35.00	857.42
36.00	851.17
37.00	840.25
38.00	879.26
39.00	915.15
40.00	962.74
41.00	987.71
42.00	986.93
43.00	977.56
44.00	983.03
45.00	983.81
46.00	1013.45
47.00	1016.57
48.00	1007.21
49.00	1008.77
50.00	1011.89
51.00	1011.11
52.00	1015.01
53.00	988.49
54.00	988.49
55.00	984.59
56.00	998.63
57.00	1007.21
58.00	1035.30
59.00	1043.10
60.00	1046.22
61.00	997.85
62.00	1003.31
63.00	1014.23
64.00	1046.22
65.00	1064.94
66.00	1078.21
67.00	1100.83
68.00	1110.97
69.00	1114.10
70.00	1109.41
71.00	1099.27
72.00	1091.47
73.00	1099.27
74.00	1093.81
75.00	1082.11
76.00	1054.02
77.00	1057.14
78.00	1099.27
79.00	1107.07
80.00	1151.54
81.00	1136.72
82.00	1180.41
83.00	1180.41
84.00	1190.55
85.00	1160.91
86.00	1130.48
87.00	1131.26
88.00	1181.19
89.00	1206.94
90.00	1226.44
91.00	1206.94
92.00	1213.96
93.00	1217.86
94.00	1231.90
95.00	1240.48
96.00	1241.26
97.00	1256.09
98.00	1256.87
99.00	1267.79
100.00	1271.69
101.00	1262.33
102.00	1229.56
103.00	1225.66
104.00	1226.44
105.00	1284.95
106.00	1281.83
107.00	1292.76
108.00	1272.47
109.00	1283.39
110.00	1306.80
111.00	1327.86
112.00	1352.05
113.00	1367.65
114.00	1386.38
115.00	1365.31
116.00	1353.61
117.00	1314.60
118.00	1352.83
119.00	1373.11
120.00	1414.46
121.00	1399.64
122.00	1401.20
123.00	1400.42
124.00	1419.14
125.00	1421.49
126.00	1433.19
127.00	1421.49
128.00	1437.09
129.00	1465.96
130.00	1492.48
131.00	1501.06
132.00	1502.62
133.00	1511.21
134.00	1511.99
135.00	1497.16
136.00	1522.91
137.00	1542.41
138.00	1523.69
139.00	1523.69
140.00	1513.55
141.00	1555.68
142.00	1532.27
143.00	1570.50
144.00	1571.28
145.00	1580.64
146.00	1591.56
147.00	1635.25
148.00	1649.30
149.00	1646.18
150.00	1648.52
151.00	1676.60
152.00	1706.25
153.00	1702.35
154.00	1722.63
155.00	1744.48
156.00	1740.58
157.00	1736.68
158.00	1707.03
159.00	1719.51
160.00	1744.48
161.00	1734.34
162.00	1777.25
163.00	1789.73
164.00	1836.54
165.00	1836.54
166.00	1864.63
167.00	1842.78
168.00	1848.24
169.00	1819.38
170.00	1847.46
171.00	1883.35
172.00	1901.30
173.00	1884.91
174.00	1859.17
175.00	1888.81
176.00	1958.25
177.00	1967.61
178.00	2002.72
179.00	1993.36
180.00	2012.86
181.00	2001.94
182.00	2054.21
183.00	2071.37
184.00	2077.62
185.00	2037.05
186.00	2026.90
187.00	2017.54
188.00	2036.27
189.00	2102.58
190.00	2161.87
191.00	2186.06
192.00	2182.94
193.00	2165.78
194.00	2175.92
195.00	2172.80
196.00	2183.72
197.00	2152.51
198.00	2153.29
199.00	2166.56
200.00	2210.25
201.00	2232.09
202.00	2273.44
203.00	2277.34
204.00	2286.70
205.00	2254.72
206.00	2281.24
207.00	2314.79
208.00	2341.32
209.00	2333.51
210.00	2378.76
211.00	2363.16
212.00	2414.65
213.00	2409.19
214.00	2456.78
215.00	2467.70
216.00	2455.22
217.00	2439.62
218.00	2466.92
219.00	2497.35
220.00	2520.76
221.00	2484.87
222.00	2471.61
223.00	2496.57
224.00	2527.78
225.00	2528.56
226.00	2591.75
227.00	2581.61
228.00	2652.61
229.00	2637.78
230.00	2679.13
231.00	2656.51
232.00	2641.68
233.00	2651.05
234.00	2683.81
235.00	2757.15
236.00	2800.06
237.00	2851.55
238.00	2835.17
239.00	2851.55
240.00	2820.35
241.00	2892.12
242.00	2908.51
243.00	2942.83
244.00	2904.60
245.00	2928.79
246.00	2931.13
247.00	3031.77
248.00	3041.92
249.00	3084.05
250.00	3027.09
251.00	3022.41
252.00	3011.49
253.00	3055.96
254.00	3113.69
255.00	3168.31
256.00	3157.38
257.00	3207.31
258.00	3252.56
259.00	3293.91
260.00	3311.08
261.00	3312.64
262.00	3350.09
263.00	3356.33
264.00	3384.41
265.00	3361.79
266.00	3400.80
267.00	3357.89
268.00	3385.19
269.00	3371.93
270.00	3447.61
271.00	3498.32
272.00	3588.04
273.00	3616.91
274.00	3628.61
275.00	3591.16
276.00	3601.30
277.00	3639.53
278.00	3624.71
279.00	3641.87
280.00	3639.53
281.00	3724.57
282.00	3745.64
283.00	3772.94
284.00	3755.78
285.00	3787.77
286.00	3794.01
287.00	3815.85
288.00	3818.97
289.00	3862.66
290.00	3902.45
291.00	3929.76
292.00	3903.23
293.00	3847.06
294.00	3877.49
295.00	3872.81
296.00	3946.92
297.00	3953.94
298.00	3979.69
299.00	3946.14
300.00	3952.38
301.00	3945.36
302.00	3958.63
303.00	3953.94
304.00	4032.74
305.00	4103.74
306.00	4107.64
307.00	4133.39
308.00	4120.12
309.00	4133.39
310.00	4094.38
311.00	4151.33
312.00	4185.66
313.00	4208.28
314.00	4154.45
315.00	4166.15
316.00	4234.03
317.00	4262.12
318.00	4276.16
319.00	4216.08
320.00	4237.15
321.00	4225.45
322.00	4241.05
323.00	4273.82
324.00	4339.35
325.00	4414.25
326.00	4423.61
327.00	4509.43
328.00	4552.34
329.00	4599.93
330.00	4558.58
331.00	4525.04
332.00	4509.43
333.00	4497.73
334.00	4542.20
335.00	4590.57
336.00	4620.22
337.00	4643.62
338.00	4673.27
339.00	4751.29
340.00	4758.31
341.00	4788.74
342.00	4789.52
343.00	4855.83
344.00	4861.29
345.00	4873.00
346.00	4916.69
347.00	4928.39
348.00	4972.08
349.00	4956.47
350.00	5010.31
351.00	4961.94
352.00	4972.86
353.00	4998.60
354.00	5068.82
355.00	5041.51
356.00	5002.50
357.00	5115.63
358.00	5195.99
359.00	5253.72
360.00	5196.77
361.00	5319.26
362.00	5298.97
363.00	5313.02
364.00	5224.08
365.00	5288.83
366.00	5318.48
367.00	5435.50
368.00	5465.15
369.00	5464.37
370.00	5369.19
371.00	5440.19
372.00	5464.37
373.00	5569.69
374.00	5540.83
375.00	5569.69
376.00	5565.79
377.00	5643.03
378.00	5699.98
379.00	5731.97
380.00	5736.65
381.00	5830.27
382.00	5875.52
383.00	5953.54
384.00	5834.18
385.00	5886.45
386.00	5916.87
387.00	6012.84
388.00	6083.05
389.00	6154.05
390.00	6227.39
391.00	6197.74
392.00	6226.61
393.00	6258.59
394.00	6323.35
395.00	6306.96
396.00	6321.79
397.00	6360.80
398.00	6423.99
399.00	6583.15
400.00	6584.71
401.00	6596.41
402.00	6596.41
403.00	6726.70
404.00	6826.56
405.00	6806.28
406.00	6776.63
407.00	6768.83
408.00	6771.17
409.00	6787.55
410.00	6764.15
411.00	6856.99
412.00	6852.31
413.00	6899.12
414.00	6845.29
415.00	6853.87
416.00	6854.65
417.00	6913.16
418.00	7008.34
419.00	7048.91
420.00	7037.99
421.00	7049.69
422.00	7090.26
423.00	7167.50
424.00	7124.59
425.00	7161.26
426.00	7105.87
427.00	7208.07
428.00	7199.49
429.00	7254.10
430.00	7176.86
431.00	7182.32
432.00	7207.29
433.00	7258.00
434.00	7259.56
435.00	7301.69
436.00	7327.44
437.00	7364.89
438.00	7354.74
439.00	7344.60
440.00	7396.09
441.00	7464.75
442.00	7581.78
443.00	7651.99
444.00	7668.38
445.00	7704.26
446.00	7767.46
447.00	7850.16
448.00	7840.79
449.00	7747.17
450.00	7732.35
451.00	7833.77
452.00	7923.49
453.00	7914.91
454.00	7898.53
455.00	7981.23
456.00	8104.50
457.00	8226.98
458.00	8209.04
459.00	8127.90
460.00	8005.41
461.00	8010.09
462.00	8127.12
463.00	8245.71
464.00	8318.26
465.00	8392.38
466.00	8398.62
467.00	8464.94
468.00	8336.99
469.00	8358.05
470.00	8353.37
471.00	8521.11
472.00	8568.70
473.00	8574.94
474.00	8691.97
475.00	8844.10
476.00	9008.72
477.00	9029.79
478.00	9059.43
479.00	9105.46
480.00	9078.16
481.00	9039.15
482.00	8908.08
483.00	8883.11
484.00	8929.92
485.00	9138.23
486.00	9288.81
487.00	9273.98
488.00	9296.61
489.00	9286.47
490.00	9376.19
491.00	9307.53
492.00	9401.93
493.00	9423.00
494.00	9509.60
495.00	9486.19
496.00	9535.34
497.00	9611.80
498.00	9611.80
499.00	9664.85
500.00	9644.57
501.00	9738.19
502.00	9743.65
503.00	9809.97
504.00	9848.19
505.00	9930.89
506.00	9898.13
507.00	9910.61
508.00	9982.38
509.00	10177.43
510.00	10272.61
511.00	10265.59
512.00	10315.52
513.00	10381.06
514.00	10411.48
515.00	10356.87
516.00	10388.86
517.00	10452.83
518.00	10504.32
519.00	10473.12
520.00	10510.57
521.00	10558.16
522.00	10565.18
523.00	10604.97
524.00	10576.10
525.00	10765.68
526.00	10796.89
527.00	10924.06
528.00	10884.27
529.00	10887.39
530.00	10845.26
531.00	10880.37
532.00	10938.88
533.00	11023.14
534.00	10995.84
535.00	11074.63
536.00	10984.91
537.00	10945.13
538.00	10846.04
539.00	10973.21
540.00	11093.36
541.00	11165.92
542.00	11230.67
543.00	11303.23
544.00	11396.07
545.00	11390.61
546.00	11382.81
547.00	11416.35
548.00	11487.35
549.00	11687.86
550.00	11842.33
551.00	11918.79
552.00	11849.35
553.00	11757.29
554.00	11777.58
555.00	11922.69
556.00	11972.62
557.00	12119.29
558.00	12115.39
559.00	12241.78
560.00	12268.31
561.00	12380.65
562.00	12419.66
563.00	12454.77
564.00	12421.22
565.00	12541.37
566.00	12727.83
567.00	12823.80
568.00	12770.74
569.00	12638.89
570.00	12784.01
571.00	13006.36
572.00	13102.32
573.00	13085.94
574.00	13088.28
575.00	13234.95
576.00	13465.10
577.00	13533.76
578.00	13666.39
579.00	13594.61
580.00	13735.04
581.00	13773.27
582.00	14024.49
583.00	14185.99
584.00	14398.20
585.00	14492.60
586.00	14572.96
587.00	14485.58
588.00	14304.57
589.00	14330.32
590.00	14446.57
591.00	14724.31
592.00	14979.43
593.00	15265.75
594.00	15375.76
595.00	15385.90
596.00	15449.10
597.00	15616.05
598.00	15854.01
599.00	16030.33
600.00	16132.53
601.00	16095.08
602.00	16070.90
603.00	16201.97
604.00	16396.23
605.00	16728.59
606.00	16863.56
607.00	16954.06
608.00	17005.55
609.00	17152.23
610.00	17302.02
611.00	17346.49
612.00	17437.77
613.00	17664.02
614.00	17802.11
615.00	17969.07
616.00	18054.11
617.00	18264.76
618.00	18530.80
619.00	18635.35
620.00	18787.48
621.00	18868.62
622.00	19110.47
623.00	19318.78
624.00	19449.07
625.00	19538.01
626.00	19499.00
627.00	19607.45
628.00	19716.67
629.00	20039.67
630.00	20227.69
631.00	20343.94
632.00	20359.54
633.00	20702.04
634.00	21053.90
635.00	21241.92
636.00	21337.10
637.00	21479.10
638.00	21682.72
639.00	21730.31
640.00	21794.29
641.00	21935.50
642.00	22112.60
643.00	22329.49
644.00	22522.19
645.00	22611.14
646.00	22576.81
647.00	22688.37
648.00	22974.70
649.00	23296.13
650.00	23472.45
651.00	23696.36
652.00	23840.70
653.00	24052.91
654.00	24219.86
655.00	24329.09
656.00	24439.09
657.00	24440.65
658.00	24683.29
659.00	24946.21
660.00	25247.36
661.00	25408.08
662.00	25531.34
663.00	25513.40
664.00	25731.85
665.00	25973.70
666.00	26245.99
667.00	26391.10
668.00	26573.66
669.00	26731.26
670.00	26857.65
671.00	26916.16
672.00	27121.35
673.00	27255.54
674.00	27481.01
675.00	27531.72
676.00	27733.79
677.00	27807.90
678.00	28073.95
679.00	28259.63
680.00	28460.13
681.00	28579.50
682.00	28766.74
683.00	28971.15
684.00	29240.31
685.00	29377.62
686.00	29441.60
687.00	29510.25
688.00	29696.72
689.00	30093.05
690.00	30145.32
691.00	30327.88
692.00	30293.55
693.00	30724.99
694.00	31116.64
695.00	31374.88
696.00	31472.40
697.00	31399.85
698.00	31721.28
699.00	31694.75
700.00	31980.30
701.00	31972.50
702.00	32351.66
703.00	32349.32
704.00	32824.45
705.00	32942.26
706.00	33383.84
707.00	33387.74
708.00	33587.47
709.00	33587.47
710.00	33759.11
711.00	33962.73
712.00	34099.26
713.00	34096.14
714.00	34203.03
715.00	34311.47
716.00	34341.12
717.00	34609.50
718.00	34600.92
719.00	34941.86
720.00	34803.77
721.00	35084.63
722.00	35163.43
723.00	35408.40
724.00	35496.56
725.00	35566.78
726.00	35578.48
727.00	35782.89
728.00	35955.31
729.00	36180.00
730.00	36259.58
731.00	36321.21
732.00	36518.60
733.00	36570.87
734.00	36635.63
735.00	36490.51
736.00	36489.73
737.00	36627.04
738.00	36857.20
739.00	37095.15
740.00	37411.90
741.00	37798.87
742.00	37895.61
743.00	37761.42
744.00	37757.52
745.00	37954.91
746.00	38228.75
747.00	38358.26
748.00	38573.59
749.00	38822.47
750.00	38864.60
751.00	38806.86
752.00	38941.05
753.00	39160.28
754.00	39500.44
755.00	39460.65
756.00	39773.50
757.00	39864.00
758.00	40261.90
759.00	40112.88
760.00	40195.58
761.00	40079.33
762.00	40252.53
763.00	40414.81
764.00	40558.36
765.00	40744.83
766.00	40805.68
767.00	40944.55
768.00	41077.96
769.00	41329.96
770.00	41568.69
771.00	41625.65
772.00	41810.55
773.00	41906.51
774.00	42000.13
775.00	41982.97
776.00	42157.73
777.00	42540.80
778.00	42816.20
779.00	42989.40
780.00	42852.09
781.00	42981.60
782.00	43020.61
783.00	43276.51
784.00	43279.63
785.00	43317.85
786.00	43498.86
787.00	43909.23
788.00	44323.51
789.00	44445.99
790.00	44405.42
791.00	44367.20
792.00	44518.55
793.00	44492.80
794.00	44707.35
795.00	44622.31
796.00	44894.60
797.00	44783.81
798.00	45107.58
799.00	45107.58
800.00	45376.75
801.00	45482.85
802.00	45883.08
803.00	45939.25
804.00	46091.39
805.00	46232.60
806.00	46474.46
807.00	46502.54
808.00	46560.28
809.00	46569.64
810.00	46793.55
811.00	46835.68
812.00	46929.30
813.00	47028.38
814.00	47118.88
815.00	47268.68
816.00	47313.93
817.00	47369.32
818.00	47282.72
819.00	47385.71
820.00	47470.75
821.00	47751.61
822.00	47851.47
823.00	47970.84
824.00	48009.85
825.00	48121.41
826.00	48303.20
827.00	48563.78
828.00	48604.34
829.00	48680.80
830.00	48665.98
831.00	48703.43
832.00	48800.17
833.00	48846.20
834.00	49082.59
835.00	49084.15
836.00	49375.16
837.00	49351.76
838.00	49529.64
839.00	49406.37
840.00	49573.33
841.00	49697.38
842.00	50017.25
843.00	50244.28
844.00	50412.02
845.00	50629.69
846.00	50739.69
847.00	50820.83
848.00	50767.00
849.00	50809.13
850.00	50735.01
851.00	50814.59
852.00	50869.98
853.00	51110.28
854.00	51183.62
855.00	51365.40
856.00	51486.32
857.00	51556.54
858.00	51561.22
859.00	51470.72
860.00	51520.65
861.00	51554.98
862.00	51714.14
863.00	51858.47
864.00	51934.15
865.00	51849.89
866.00	51831.16
867.00	51888.12
868.00	52069.12
869.00	52214.23
870.00	52372.61
871.00	52431.90
872.00	52447.50
873.00	52467.79
874.00	52494.32
875.00	52481.83
876.00	52646.45
877.00	52765.82
878.00	52887.53
879.00	52942.14
880.00	53052.92
881.00	53179.31
882.00	53091.93
883.00	53077.89
884.00	52947.60
885.00	53018.60
886.00	52978.81
887.00	53128.60
888.00	53187.11
889.00	53336.13
890.00	53411.02
891.00	53309.60
892.00	53463.30
893.00	53474.22
894.00	53656.78
895.00	53740.26
896.00	53851.83
897.00	53923.60
898.00	53838.56
899.00	53949.35
900.00	54015.66
901.00	54139.71
902.00	54196.66
903.00	54305.11
904.00	54452.56
905.00	54584.41
906.00	54624.20
907.00	54590.66
908.00	54380.79
909.00	54545.40
910.00	54475.97
911.00	54744.35
912.00	54518.88
913.00	54649.95
914.00	54530.58
915.00	54620.30
916.00	54627.32
917.00	54739.67
918.00	54904.29
919.00	54906.63
920.00	54880.88
921.00	54879.32
922.00	54886.34
923.00	54957.34
924.00	54946.42
925.00	55117.28
926.00	55267.07
927.00	55374.73
928.00	55478.50
929.00	55556.52
930.00	55512.83
931.00	55435.59
932.00	55466.80
933.00	55561.20
934.00	55625.95
935.00	55636.09
936.00	55705.53
937.00	55754.68
938.00	55728.16
939.00	55760.92
940.00	55792.13
941.00	55760.14
942.00	55859.23
943.00	55934.90
944.00	56136.19
945.00	56135.41
946.00	56253.22
947.00	56201.72
948.00	56196.26
949.00	56191.58
950.00	56258.68
951.00	56296.13
952.00	56273.50
953.00	56306.27
954.00	56381.16
955.00	56422.51
956.00	56498.97
957.00	56544.22
958.00	56747.85
959.00	56875.80
960.00	57077.86
961.00	57008.43
962.00	57098.15
963.00	57089.57
964.00	57247.16
965.00	57171.49
966.00	57243.26
967.00	57368.09
968.00	57442.21
969.00	57357.17
970.00	57315.04
971.00	57461.71
972.00	57612.29
973.00	57570.16
974.00	57488.24
975.00	57538.17
976.00	57515.54
977.00	57602.14
978.00	57577.96
979.00	57703.57
980.00	57659.88
981.00	57804.21
982.00	57803.43
983.00	57848.68
984.00	57872.87
985.00	57961.81
986.00	58060.11
987.00	57911.10
988.00	57915.00
989.00	57848.68
990.00	58004.72
991.00	57911.10
992.00	58028.90
993.00	58021.10
994.00	58300.40
995.00	58448.64
996.00	58665.53
997.00	58804.40
998.00	58909.72
999.00	58969.80
1000.00	58976.82
1001.00	58951.07
1002.00	58827.80
1003.00	58630.42
1004.00	58621.84
1005.00	58708.44
1006.00	58856.67
1007.00	58803.62
1008.00	58865.25
1009.00	58798.16
1010.00	58820.78
1011.00	58761.49
1012.00	58847.31
1013.00	58896.46
1014.00	59015.05
1015.00	59043.91
1016.00	59182.01
1017.00	59252.22
1018.00	59351.30
1019.00	59411.38
1020.00	59359.89
1021.00	59380.95
1022.00	59370.81
1023.00	59332.58
1024.00	59320.88
1025.00	59380.95
1026.00	59618.13
1027.00	59786.64
1028.00	59910.69
1029.00	59811.61
1030.00	59741.39
1031.00	59763.24
1032.00	59901.33
1033.00	60128.36
1034.00	60101.84
1035.00	60184.54
1036.00	60111.20
1037.00	60129.14
1038.00	60019.14
1039.00	59962.96
1040.00	59967.65
1041.00	60006.65
1042.00	60086.23
1043.00	60204.04
1044.00	60325.75
1045.00	60523.13
1046.00	60543.42
1047.00	60569.16
1048.00	60486.46
1049.00	60469.30
1050.00	60498.95
1051.00	60484.12
1052.00	60543.42
1053.00	60611.29
1054.00	60633.92
1055.00	60533.28
1056.00	60470.08
1057.00	60520.79
1058.00	60675.27
1059.00	60704.91
1060.00	60736.90
1061.00	60825.84
1062.00	60973.30
1063.00	60998.26
1064.00	60872.65
1065.00	60692.43
1066.00	60778.25
1067.00	60879.67
1068.00	60992.02
1069.00	60937.41
1070.00	60927.27
1071.00	60999.82
1072.00	61077.84
1073.00	61230.75
1074.00	61339.20
1075.00	61410.98
1076.00	61365.73
1077.00	61307.99
1078.00	61264.30
1079.00	61319.70
1080.00	61414.10
1081.00	61524.10
1082.00	61593.54
1083.00	61627.87
1084.00	61600.56
1085.00	61571.69
1086.00	61544.39
1087.00	61575.59
1088.00	61562.33
1089.00	61652.05
1090.00	61650.49
1091.00	61716.03
1092.00	61662.97
1093.00	61624.74
1094.00	61723.83
1095.00	61769.08
1096.00	61872.06
1097.00	61890.01
1098.00	61840.07
1099.00	61862.70
1100.00	61794.04
1101.00	61840.85
1102.00	61875.96
1103.00	61944.62
1104.00	61980.51
1105.00	62018.74
1106.00	62011.71
1107.00	62039.80
1108.00	62049.16
1109.00	62116.26
1110.00	62284.78
1111.00	62305.06
1112.00	62319.88
1113.00	62223.92
1114.00	62166.97
1115.00	62097.53
1116.00	62134.98
1117.00	62186.47
1118.00	62248.89
1119.00	62153.71
1120.00	62201.30
1121.00	62205.20
1122.00	62330.81
1123.00	62262.15
1124.00	62252.79
1125.00	62166.97
1126.00	62194.28
1127.00	62245.77
1128.00	62253.57
1129.00	62338.61
1130.00	62320.66
1131.00	62362.01
1132.00	62344.07
1133.00	62319.88
1134.00	62358.11
1135.00	62373.72
1136.00	62362.01
1137.00	62354.99
1138.00	62401.80
1139.00	62557.84
1140.00	62631.18
1141.00	62610.11
1142.00	62605.43
1143.00	62634.30
1144.00	62674.09
1145.00	62668.62
1146.00	62651.46
1147.00	62578.12
1148.00	62537.55
1149.00	62519.61
1150.00	62617.91
1151.00	62716.21
1152.00	62720.12
1153.00	62667.06
1154.00	62560.18
1155.00	62512.59
1156.00	62491.52
1157.00	62494.64
1158.00	62529.75
1159.00	62578.90
1160.00	62643.66
1161.00	62670.18
1162.00	62684.23
1163.00	62618.69
1164.00	62670.18
1165.00	62674.87
1166.00	62702.17
1167.00	62720.12
1168.00	62819.98
1169.00	62948.71
1170.00	62961.19
1171.00	62927.64
1172.00	62822.32
1173.00	62749.76
1174.00	62671.74
1175.00	62809.84
1176.00	62839.48
1177.00	62902.68
1178.00	62804.38
1179.00	62790.33
1180.00	62815.30
1181.00	62807.50
1182.00	62919.84
1183.00	62926.86
1184.00	62994.74
1185.00	62895.66
1186.00	62877.71
1187.00	62940.91
1188.00	63021.26
1189.00	63006.44
1190.00	62876.15
1191.00	62816.08
1192.00	62727.92
1193.00	62742.74
1194.00	62738.84
1195.00	62896.44
1196.00	62887.85
1197.00	62906.58
1198.00	62874.59
1199.00	62979.14
1200.00	63071.20
1201.00	63147.65
1202.00	63088.36
1203.00	63043.89
1204.00	62898.00
1205.00	62926.08
1206.00	62926.86
1207.00	62987.72
1208.00	63025.95
1209.00	63036.09
1210.00	63183.54
1211.00	63263.90
1212.00	63338.02
1213.00	63283.40
1214.00	63149.21
1215.00	63078.22
1216.00	63018.14
1217.00	62987.72
1218.00	62880.05
1219.00	62980.70
1220.00	63086.80
1221.00	63230.35
1222.00	63203.83
1223.00	63228.01
1224.00	63242.06
1225.00	63245.96
1226.00	63213.97
1227.00	63177.30
1228.00	63040.77
1229.00	62939.35
1230.00	62963.53
1231.00	63075.88
1232.00	63202.27
1233.00	63218.65
1234.00	63211.63
1235.00	63202.27
1236.00	63194.46
1237.00	63196.02
1238.00	63272.48
1239.00	63395.75
1240.00	63513.56
1241.00	63560.37
1242.00	63584.55
1243.00	63498.73
1244.00	63389.51
1245.00	63328.66
1246.00	63381.71
1247.00	63458.94
1248.00	63471.43
1249.00	63528.38
1250.00	63590.80
1251.00	63699.24
1252.00	63731.23
1253.00	63794.42
1254.00	63725.77
1255.00	63685.20
1256.00	63667.25
1257.00	63752.29
1258.00	63788.18
1259.00	63683.64
1260.00	63600.16
1261.00	63690.66
1262.00	63870.10
1263.00	63978.54
1264.00	63913.79
1265.00	63841.23
1266.00	63742.93
1267.00	63735.91
1268.00	63803.00
1269.00	63915.35
1270.00	64006.63
1271.00	63987.91
1272.00	64093.23
1273.00	64171.25
1274.00	64228.98
1275.00	64161.89
1276.00	64104.15
1277.00	64063.58
1278.00	64033.94
1279.00	64006.63
1280.00	63965.28
1281.00	63989.47
1282.00	64134.58
1283.00	64278.13
1284.00	64224.30
1285.00	64139.26
1286.00	64085.43
1287.00	64126.78
1288.00	64118.98
1289.00	64134.58
1290.00	64184.51
1291.00	64233.66
1292.00	64281.25
1293.00	64321.04
1294.00	64282.81
1295.00	64274.23
1296.00	64251.61
1297.00	64235.22
1298.00	64206.36
1299.00	64202.45
1300.00	64225.08
1301.00	64242.24
1302.00	64264.09
1303.00	64314.80
1304.00	64381.12
1305.00	64394.38
1306.00	64365.51
1307.00	64286.71
1308.00	64262.53
1309.00	64256.29
1310.00	64299.98
1311.00	64364.73
1312.00	64503.60
1313.00	64557.44
1314.00	64637.01
1315.00	64579.28
1316.00	64614.39
1317.00	64538.71
1318.00	64513.75
1319.00	64514.53
1320.00	64580.84
1321.00	64715.81
1322.00	64760.28
1323.00	64857.80
1324.00	64942.06
1325.00	64908.52
1326.00	64754.04
1327.00	64597.23
1328.00	64502.04
1329.00	64618.29
1330.00	64620.63
1331.00	64804.75
1332.00	64711.91
1333.00	64817.24
1334.00	64787.59
1335.00	64824.26
1336.00	64785.25
1337.00	64822.70
1338.00	64929.58
1339.00	65059.87
1340.00	65123.85
1341.00	65078.60
1342.00	64963.13
1343.00	64950.65
1344.00	64871.07
1345.00	64795.39
1346.00	64704.89
1347.00	64792.27
1348.00	64845.32
1349.00	64820.36
1350.00	64715.03
1351.00	64706.45
1352.00	64669.78
1353.00	64715.81
1354.00	64672.90
1355.00	64723.61
1356.00	64807.87
1357.00	64939.72
1358.00	64941.28
1359.00	64910.86
1360.00	64922.56
1361.00	64967.03
1362.00	64973.27
1363.00	65006.04
1364.00	64970.15
1365.00	65026.32
1366.00	64949.09
1367.00	64991.22
1368.00	65047.39
1369.00	65105.90
1370.00	65043.49
1371.00	64896.81
1372.00	64842.98
1373.00	64892.91
1374.00	64930.36
1375.00	64904.62
1376.00	64946.75
1377.00	64914.76
1378.00	64956.11
1379.00	64913.98
1380.00	64921.78
1381.00	64935.04
1382.00	64995.12
1383.00	65041.15
1384.00	64978.73
1385.00	64944.40
1386.00	64999.80
1387.00	65124.63
1388.00	65193.28
1389.00	65137.11
1390.00	65065.33
1391.00	64995.12
1392.00	65049.73
1393.00	65038.03
1394.00	65009.16
1395.00	64899.93
1396.00	64974.83
1397.00	64973.27
1398.00	64958.45
1399.00	64823.48
1400.00	64832.84
1401.00	64835.18
1402.00	64914.76
1403.00	64854.68
1404.00	64888.23
1405.00	64790.71
1406.00	64752.48
1407.00	64701.77
1408.00	64688.51
1409.00	64669.00
1410.00	64705.67
1411.00	64718.15
1412.00	64803.97
1413.00	64852.34
1414.00	64949.87
1415.00	64965.47
1416.00	64994.34
1417.00	64992.00
1418.00	64979.51
1419.00	64938.16
1420.00	64903.06
1421.00	64885.89
1422.00	64884.33
1423.00	64940.50
1424.00	64942.06
1425.00	64881.99
1426.00	64745.46
1427.00	64747.02
1428.00	64789.15
1429.00	64807.87
1430.00	64868.73
1431.00	64852.34
1432.00	64891.35
1433.00	64874.97
1434.00	64921.00
1435.00	64918.66
1436.00	64790.71
1437.00	64739.22
1438.00	64699.43
1439.00	64796.17
1440.00	64816.46
1441.00	64876.53
1442.00	64944.40
1443.00	64871.07
1444.00	64844.54
1445.00	64768.08
1446.00	64767.30
1447.00	64732.98
1448.00	64615.95
1449.00	64583.96
1450.00	64501.26
1451.00	64595.66
1452.00	64708.01
1453.00	64817.24
1454.00	64779.79
1455.00	64768.86
1456.00	64783.69
1457.00	64768.08
1458.00	64800.85
1459.00	64747.80
1460.00	64744.68
1461.00	64599.57
1462.00	64525.45
1463.00	64494.24
1464.00	64559.78
1465.00	64601.91
1466.00	64600.35
1467.00	64495.80
1468.00	64397.50
1469.00	64375.65
1470.00	64381.90
1471.00	64427.15
1472.00	64456.79
1473.00	64575.38
1474.00	64585.52
1475.00	64626.87
1476.00	64564.46
1477.00	64660.42
1478.00	64651.84
1479.00	64622.19
1480.00	64512.19
1481.00	64457.57
1482.00	64545.73
1483.00	64649.50
1484.00	64721.27
1485.00	64566.80
1486.00	64446.65
1487.00	64316.36
1488.00	64280.47
1489.00	64199.33
1490.00	64161.11
1491.00	64235.22
1492.00	64313.24
1493.00	64374.09
1494.00	64399.84
1495.00	64402.96
1496.00	64345.23
1497.00	64226.64
1498.00	64176.71
1499.00	64168.13
1500.00	64191.53
1501.00	64155.64
1502.00	64172.03
1503.00	64167.35
1504.00	64235.22
1505.00	64310.12
1506.00	64349.13
1507.00	64385.02
1508.00	64375.65
1509.00	64390.48
1510.00	64219.62
1511.00	64127.56
1512.00	63976.98
1513.00	64008.19
1514.00	63969.18
1515.00	64037.06
1516.00	64074.51
1517.00	64179.83
1518.00	64246.14
1519.00	64265.65
1520.00	64204.80
1521.00	64133.80
1522.00	64101.81
1523.00	64072.95
1524.00	64133.02
1525.00	64170.47
1526.00	64115.86
1527.00	63969.18
1528.00	63843.57
1529.00	63877.12
1530.00	63916.13
1531.00	63951.24
1532.00	63960.60
1533.00	64011.31
1534.00	64040.96
1535.00	63987.13
1536.00	64012.09
1537.00	64016.77
1538.00	64038.62
1539.00	64025.35
1540.00	64039.40
1541.00	64020.67
1542.00	63948.12
1543.00	63972.30
1544.00	64008.97
1545.00	63999.61
1546.00	63911.45
1547.00	63852.15
1548.00	63852.94
1549.00	63795.98
1550.00	63859.18
1551.00	63856.06
1552.00	63920.81
1553.00	63976.20
1554.00	63991.03
1555.00	63954.36
1556.00	63872.44
1557.00	63775.70
1558.00	63757.75
1559.00	63752.29
1560.00	63758.53
1561.00	63831.87
1562.00	63839.67
1563.00	63871.66
1564.00	63824.07
1565.00	63822.51
1566.00	63852.94
1567.00	63857.62
1568.00	63721.08
1569.00	63536.96
1570.00	63476.89
1571.00	63472.21
1572.00	63506.54
1573.00	63508.88
1574.00	63544.76
1575.00	63573.63
1576.00	63515.90
1577.00	63528.38
1578.00	63504.98
1579.00	63506.54
1580.00	63388.73
1581.00	63362.20
1582.00	63277.16
1583.00	63286.53
1584.00	63293.55
1585.00	63338.02
1586.00	63355.96
1587.00	63349.72
1588.00	63344.26
1589.00	63346.60
1590.00	63375.47
1591.00	63377.81
1592.00	63376.25
1593.00	63269.36
1594.00	63250.64
1595.00	63145.31
1596.00	63277.94
1597.00	63351.28
1598.00	63419.94
1599.00	63327.87
1600.00	63297.45
1601.00	63280.28
1602.00	63304.47
1603.00	63202.27
1604.00	63210.07
1605.00	63135.95
1606.00	63118.01
1607.00	63096.94
1608.00	63059.49
1609.00	63032.19
1610.00	62997.08
1611.00	63090.70
1612.00	63151.55
1613.00	63164.82
1614.00	63192.12
1615.00	63305.25
1616.00	63388.73
1617.00	63365.32
1618.00	63228.01
1619.00	63119.57
1620.00	63061.05
1621.00	63035.31
1622.00	63101.62
1623.00	63146.87
1624.00	63161.70
1625.00	63096.16
1626.00	63071.98
1627.00	63050.91
1628.00	63033.75
1629.00	62959.63
1630.00	63032.97
1631.00	63096.94
1632.00	63162.48
1633.00	63154.68
1634.00	63212.41
1635.00	63209.29
1636.00	63138.29
1637.00	62967.43
1638.00	62906.58
1639.00	62863.67
1640.00	62890.97
1641.00	62934.66
1642.00	63057.15
1643.00	63103.18
1644.00	63084.46
1645.00	62995.52
1646.00	62978.35
1647.00	62937.01
1648.00	62996.30
1649.00	62956.51
1650.00	62875.37
1651.00	62707.63
1652.00	62670.96
1653.00	62759.90
1654.00	62753.66
1655.00	62655.36
1656.00	62587.49
1657.00	62580.46
1658.00	62651.46
1659.00	62638.98
1660.00	62688.91
1661.00	62707.63
1662.00	62799.69
1663.00	62865.23
1664.00	62855.87
1665.00	62835.58
1666.00	62812.96
1667.00	62824.66
1668.00	62810.62
1669.00	62787.21
1670.00	62780.19
1671.00	62782.53
1672.00	62803.59
1673.00	62955.73
1674.00	62963.53
1675.00	62966.65
1676.00	62756.00
1677.00	62608.55
1678.00	62534.43
1679.00	62492.30
1680.00	62506.35
1681.00	62459.54
1682.00	62525.85
1683.00	62567.98
1684.00	62542.24
1685.00	62520.39
1686.00	62444.71
1687.00	62450.95
1688.00	62372.16
1689.00	62347.97
1690.00	62193.50
1691.00	62165.41
1692.00	62156.83
1693.00	62234.06
1694.00	62284.78
1695.00	62329.25
1696.00	62358.89
1697.00	62310.52
1698.00	62198.18
1699.00	62093.63
1700.00	62078.81
1701.00	62085.83
1702.00	62150.59
1703.00	62120.94
1704.00	62108.46
1705.00	62082.71
1706.00	62092.07
1707.00	62056.96
1708.00	61972.70
1709.00	61959.44
1710.00	62031.22
1711.00	62095.19
1712.00	62035.90
1713.00	61943.84
1714.00	61879.08
1715.00	61840.85
1716.00	61820.57
1717.00	61772.98
1718.00	61742.55
1719.00	61716.03
1720.00	61730.07
1721.00	61693.40
1722.00	61652.83
1723.00	61541.27
1724.00	61542.83
1725.00	61449.98
1726.00	61428.92
1727.00	61336.08
1728.00	61291.61
1729.00	61382.11
1730.00	61457.01
1731.00	61516.30
1732.00	61436.72
1733.00	61368.85
1734.00	61393.81
1735.00	61425.02
1736.00	61504.60
1737.00	61466.37
1738.00	61476.51
1739.00	61467.93
1740.00	61361.04
1741.00	61321.26
1742.00	61232.32
1743.00	61176.14
1744.00	61008.40
1745.00	60846.13
1746.00	60888.26
1747.00	60975.64
1748.00	61006.06
1749.00	60936.63
1750.00	60779.03
1751.00	60713.50
1752.00	60637.04
1753.00	60583.21
1754.00	60473.98
1755.00	60360.08
1756.00	60292.20
1757.00	60350.71
1758.00	60312.48
1759.00	60278.94
1760.00	60190.78
1761.00	60190.78
1762.00	60154.11
1763.00	60069.85
1764.00	60036.30
1765.00	59935.66
1766.00	59860.76
1767.00	59795.23
1768.00	59852.18
1769.00	59928.64
1770.00	59969.21
1771.00	59943.46
1772.00	59914.59
1773.00	59856.86
1774.00	59753.88
1775.00	59689.12
1776.00	59733.59
1777.00	59739.05
1778.00	59719.55
1779.00	59594.72
1780.00	59528.41
1781.00	59516.70
1782.00	59631.39
1783.00	59648.55
1784.00	59654.01
1785.00	59550.25
1786.00	59494.86
1787.00	59384.85
1788.00	59285.77
1789.00	59357.55
1790.00	59305.27
1791.00	59265.48
1792.00	59044.69
1793.00	58968.24
1794.00	59004.91
1795.00	59072.78
1796.00	59001.78
1797.00	58889.44
1798.00	58734.18
1799.00	58770.85
1800.00	58662.41
1801.00	58638.22
1802.00	58568.01
1803.00	58512.61
1804.00	58542.26
1805.00	58565.66
1806.00	58553.96
1807.00	58486.09
1808.00	58210.68
1809.00	58063.23
1810.00	57875.99
1811.00	57829.18
1812.00	57738.68
1813.00	57660.66
1814.00	57588.88
1815.00	57463.27
1816.00	57340.78
1817.00	57295.53
1818.00	57295.53
1819.00	57225.32
1820.00	57084.11
1821.00	57048.22
1822.00	56959.28
1823.00	56981.12
1824.00	56875.80
1825.00	56946.01
1826.00	56916.37
1827.00	56914.81
1828.00	56839.91
1829.00	56751.75
1830.00	56403.79
1831.00	56355.42
1832.00	56259.46
1833.00	56288.32
1834.00	56063.63
1835.00	55909.94
1836.00	55773.41
1837.00	55679.00
1838.00	55491.76
1839.00	55471.48
1840.00	55534.67
1841.00	55589.28
1842.00	55636.87
1843.00	55432.47
1844.00	55263.95
1845.00	55020.53
1846.00	54849.67
1847.00	54684.28
1848.00	54540.72
1849.00	54344.12
1850.00	54326.17
1851.00	54191.20
1852.00	54126.45
1853.00	54026.59
1854.00	53898.64
1855.00	53805.02
1856.00	53759.76
1857.00	53854.17
1858.00	53986.80
1859.00	53872.11
1860.00	53655.22
1861.00	53425.85
1862.00	53055.26
1863.00	52988.17
1864.00	52654.25
1865.00	52680.78
1866.00	52506.02
1867.00	52533.32
1868.00	52340.62
1869.00	52141.67
1870.00	52057.42
1871.00	51988.76
1872.00	51824.14
1873.00	51732.08
1874.00	51698.53
1875.00	51714.14
1876.00	51533.14
1877.00	51217.94
1878.00	50978.43
1879.00	50724.87
1880.00	50586.78
1881.00	50473.65
1882.00	50440.10
1883.00	50302.01
1884.00	50135.84
1885.00	49840.93
1886.00	49808.94
1887.00	49757.45
1888.00	49579.57
1889.00	49397.01
1890.00	49195.72
1891.00	49173.88
1892.00	49017.84
1893.00	49148.13
1894.00	49216.78
1895.00	49219.13
1896.00	49013.16
1897.00	48972.59
1898.00	48892.23
1899.00	48734.63
1900.00	48354.69
1901.00	48005.17
1902.00	47714.94
1903.00	47725.08
1904.00	47837.43
1905.00	47884.24
1906.00	47524.58
1907.00	47143.85
1908.00	46774.05
1909.00	46715.53
1910.00	46844.26
1911.00	46867.67
1912.00	46534.53
1913.00	46096.85
1914.00	45500.01
1915.00	45292.49
1916.00	44985.10
1917.00	44867.29
1918.00	44697.21
1919.00	44508.41
1920.00	44350.03
1921.00	44318.82
1922.00	44211.16
1923.00	44129.24
1924.00	43818.73
1925.00	43558.15
1926.00	43187.56
1927.00	42615.69
1928.00	42440.15
1929.00	42245.11
1930.00	42364.48
1931.00	42108.58
1932.00	42069.57
1933.00	41969.71
1934.00	41821.47
1935.00	41608.48
1936.00	41333.86
1937.00	41119.31
1938.00	40974.98
1939.00	40790.86
1940.00	40614.54
1941.00	40194.02
1942.00	39789.89
1943.00	39417.74
1944.00	39274.19
1945.00	39372.49
1946.00	39463.77
1947.00	39394.34
1948.00	39183.69
1949.00	38990.98
1950.00	38849.77
1951.00	38498.69
1952.00	38140.59
1953.00	37985.33
1954.00	37854.26
1955.00	37658.44
1956.00	37251.19
1957.00	37287.07
1958.00	37258.21
1959.00	37122.46
1960.00	36552.93
1961.00	36103.54
1962.00	35675.23
1963.00	35469.26
1964.00	35214.14
1965.00	35140.80
1966.00	34922.35
1967.00	34795.96
1968.00	34589.22
1969.00	34287.29
1970.00	33983.80
1971.00	33661.58
1972.00	33505.55
1973.00	33322.99
1974.00	33256.67
1975.00	33131.06
1976.00	32833.03
1977.00	32708.21
1978.00	32600.54
1979.00	32613.02
1980.00	32379.75
1981.00	32023.99
1982.00	31686.17
1983.00	31370.20
1984.00	31161.89
1985.00	30932.52
1986.00	30813.15
1987.00	30562.72
1988.00	30394.98
1989.00	30050.14
1990.00	29840.27
1991.00	29541.46
1992.00	29305.07
1993.00	29207.55
1994.00	29241.09
1995.00	29110.02
1996.00	28849.44
1997.00	28450.77
1998.00	28286.93
1999.00	28115.30
2000.00	27957.70
2001.00	27667.47
2002.00	27594.92
2003.00	27439.66
2004.00	27236.03
2005.00	26800.69
2006.00	26654.02
2007.00	26593.17
2008.00	26525.29
2009.00	26231.16
2010.00	25901.15
2011.00	25672.56
2012.00	25542.27
2013.00	25524.32
2014.00	25283.25
2015.00	25042.95
2016.00	24776.91
2017.00	24679.39
2018.00	24392.28
2019.00	24141.07
2020.00	24101.28
2021.00	24108.30
2022.00	24017.02
2023.00	23733.81
2024.00	23467.77
2025.00	23209.53
2026.00	22931.79
2027.00	22727.38
2028.00	22684.47
2029.00	22650.92
2030.00	22722.70
2031.00	22524.54
2032.00	22409.85
2033.00	22101.68
2034.00	21976.07
2035.00	21744.36
2036.00	21641.37
2037.00	21475.20
2038.00	21108.51
2039.00	20897.86
2040.00	20694.24
2041.00	20874.46
2042.00	20704.38
2043.00	20602.18
2044.00	20313.51
2045.00	20073.99
2046.00	19781.43
2047.00	19520.07
>>>>>End Processed Spectral Data<<<<<
