SpectraSuite Data File
++++++++++++++++++++++++++++++++++++
Date: Thu Nov 16 13:32:50 EST 2017
User: cheriyan
Dark Spectrum Present: No
Reference Spectrum Present: No
Number of Sampled Component Spectra: 1
Spectrometers: USB2+H05261
Integration Time (usec): 90000 (USB2+H05261)
Spectra Averaged: 1 (USB2+H05261)
Boxcar Smoothing: 1 (USB2+H05261)
Correct for Electrical Dark: No (USB2+H05261)
Strobe/Lamp Enabled: No (USB2+H05261)
Correct for Detector Non-linearity: No (USB2+H05261)
Correct for Stray Light: No (USB2+H05261)
Number of Pixels in Processed Spectrum: 2048
>>>>>Begin Processed Spectral Data<<<<<
0.00	395.55
1.00	395.55
2.00	375.27
3.00	326.89
4.00	315.97
5.00	303.49
6.00	326.89
7.00	286.33
8.00	289.45
9.00	261.36
10.00	270.72
11.00	248.88
12.00	242.64
13.00	239.51
14.00	230.93
15.00	248.10
16.00	237.95
17.00	272.28
18.00	294.91
19.00	328.46
20.00	338.60
21.00	319.09
22.00	298.03
23.00	750.53
24.00	2373.30
25.00	4170.05
26.00	5514.30
27.00	5649.27
28.00	5504.16
29.00	5250.60
30.00	5114.07
31.00	5087.54
32.00	5175.70
33.00	5226.42
34.00	5150.74
35.00	5006.41
36.00	4764.55
37.00	4701.36
38.00	4630.36
39.00	4723.20
40.00	4749.73
41.00	4815.26
42.00	4792.64
43.00	4804.34
44.00	4940.09
45.00	5141.38
46.00	5427.70
47.00	5600.90
48.00	5757.72
49.00	5774.88
50.00	5789.71
51.00	5778.78
52.00	5782.68
53.00	5826.37
54.00	5896.59
55.00	6111.92
56.00	6364.70
57.00	6678.33
58.00	6927.99
59.00	7144.88
60.00	7240.84
61.00	7258.78
62.00	7083.24
63.00	6888.20
64.00	6607.33
65.00	6455.20
66.00	6207.88
67.00	6069.79
68.00	5977.73
69.00	5954.32
70.00	6090.85
71.00	6330.37
72.00	6673.65
73.00	7003.66
74.00	7121.47
75.00	7087.14
76.00	6773.51
77.00	6502.79
78.00	6199.30
79.00	5880.99
80.00	5510.40
81.00	5248.26
82.00	5113.29
83.00	4953.35
84.00	4788.74
85.00	4604.61
86.00	4513.33
87.00	4474.32
88.00	4496.17
89.00	4585.89
90.00	4798.88
91.00	5163.22
92.00	5655.51
93.00	6040.92
94.00	6385.76
95.00	6605.77
96.00	6758.69
97.00	6655.70
98.00	6443.49
99.00	6292.14
100.00	6264.83
101.00	6299.16
102.00	6355.33
103.00	6523.07
104.00	6633.86
105.00	6659.60
106.00	6494.21
107.00	6526.97
108.00	6599.53
109.00	6730.60
110.00	6707.20
111.00	6658.82
112.00	6578.47
113.00	6604.99
114.00	6623.72
115.00	6812.52
116.00	7098.84
117.00	7520.92
118.00	7859.52
119.00	8110.74
120.00	8339.33
121.00	8464.94
122.00	8464.94
123.00	8481.32
124.00	8615.51
125.00	8839.42
126.00	9046.17
127.00	9349.66
128.00	9511.16
129.00	9490.09
130.00	9251.36
131.00	8936.17
132.00	8607.71
133.00	8174.71
134.00	7657.45
135.00	7068.42
136.00	6324.13
137.00	5598.56
138.00	4944.77
139.00	4760.65
140.00	4903.42
141.00	5422.24
142.00	6088.51
143.00	6934.23
144.00	7689.44
145.00	8411.11
146.00	9050.07
147.00	9564.21
148.00	9897.35
149.00	10025.29
150.00	10030.76
151.00	9771.74
152.00	9295.83
153.00	8573.38
154.00	7694.12
155.00	6808.62
156.00	6115.04
157.00	5852.90
158.00	6107.24
159.00	6853.87
160.00	7952.36
161.00	9151.49
162.00	10354.53
163.00	11243.93
164.00	11873.54
165.00	12255.04
166.00	12695.85
167.00	12973.59
168.00	13290.34
169.00	13472.12
170.00	13687.45
171.00	13693.69
172.00	13812.28
173.00	13958.96
174.00	14157.90
175.00	14131.37
176.00	14173.50
177.00	14272.59
178.00	14584.66
179.00	14854.60
180.00	15139.37
181.00	15225.18
182.00	15281.36
183.00	15365.62
184.00	15567.68
185.00	15626.98
186.00	15513.07
187.00	15441.29
188.00	15278.24
189.00	15037.94
190.00	14846.02
191.00	14984.89
192.00	15358.60
193.00	15635.56
194.00	15669.11
195.00	15433.49
196.00	15220.50
197.00	15063.69
198.00	15193.98
199.00	15268.87
200.00	15455.34
201.00	15498.25
202.00	15455.34
203.00	15273.56
204.00	15161.21
205.00	14953.68
206.00	14845.24
207.00	14897.51
208.00	15180.71
209.00	15374.98
210.00	15511.51
211.00	15434.27
212.00	15459.24
213.00	15509.17
214.00	15839.97
215.00	16221.47
216.00	16564.75
217.00	16884.62
218.00	16980.59
219.00	17122.58
220.00	17191.23
221.00	17344.15
222.00	17124.14
223.00	16575.67
224.00	15901.60
225.00	15331.29
226.00	15177.59
227.00	15348.45
228.00	15763.51
229.00	16226.15
230.00	16765.26
231.00	17361.31
232.00	17930.84
233.00	18331.86
234.00	18530.02
235.00	18544.84
236.00	18611.94
237.00	18657.19
238.00	18603.36
239.00	18375.55
240.00	18224.97
241.00	18090.00
242.00	18114.97
243.00	18111.07
244.00	18462.15
245.00	18661.09
246.00	18885.00
247.00	18866.28
248.00	18870.96
249.00	18879.54
250.00	18882.66
251.00	18958.34
252.00	18951.32
253.00	18816.35
254.00	18927.13
255.00	19257.93
256.00	19857.10
257.00	20261.24
258.00	20492.17
259.00	20573.31
260.00	20430.54
261.00	20181.66
262.00	19817.32
263.00	19562.98
264.00	19410.06
265.00	19369.49
266.00	19422.55
267.00	19566.88
268.00	19727.60
269.00	19844.62
270.00	19888.31
271.00	19966.33
272.00	20180.10
273.00	20439.12
274.00	20447.70
275.00	20351.74
276.00	20000.66
277.00	19766.60
278.00	19595.75
279.00	19705.75
280.00	20252.66
281.00	20828.43
282.00	21424.48
283.00	21668.68
284.00	21717.83
285.00	21701.45
286.00	21598.46
287.00	21436.19
288.00	21103.83
289.00	20678.63
290.00	20095.84
291.00	19540.35
292.00	19290.70
293.00	19580.92
294.00	20052.93
295.00	20445.36
296.00	20564.73
297.00	20506.99
298.00	20560.05
299.00	20615.44
300.00	20806.58
301.00	20592.03
302.00	20493.73
303.00	20326.77
304.00	20379.04
305.00	20368.12
306.00	20258.12
307.00	20097.40
308.00	19884.41
309.00	19807.17
310.00	19949.95
311.00	20205.06
312.00	20379.82
313.00	20294.00
314.00	19787.67
315.00	19100.33
316.00	18793.72
317.00	18775.78
318.00	19190.05
319.00	19433.47
320.00	19881.29
321.00	19974.13
322.00	19902.36
323.00	19562.20
324.00	19401.48
325.00	19170.55
326.00	19149.48
327.00	18931.03
328.00	18529.24
329.00	17724.88
330.00	16854.20
331.00	15930.47
332.00	15255.61
333.00	14718.85
334.00	14598.70
335.00	14793.75
336.00	15421.79
337.00	16618.58
338.00	18270.22
339.00	20200.38
340.00	21669.46
341.00	22411.41
342.00	22075.15
343.00	21492.36
344.00	20808.92
345.00	20875.24
346.00	21337.10
347.00	22051.75
348.00	22535.46
349.00	22393.47
350.00	21663.22
351.00	20650.55
352.00	19907.04
353.00	19805.61
354.00	20233.93
355.00	21002.41
356.00	21643.71
357.00	22125.08
358.00	22316.23
359.00	22478.50
360.00	22651.70
361.00	23129.95
362.00	23575.44
363.00	24090.35
364.00	24369.66
365.00	24352.49
366.00	24195.68
367.00	23963.96
368.00	23901.55
369.00	23472.45
370.00	23277.41
371.00	22892.00
372.00	22753.91
373.00	22207.78
374.00	21674.14
375.00	21220.86
376.00	20912.69
377.00	21115.53
378.00	21492.36
379.00	22182.82
380.00	22797.60
381.00	23543.45
382.00	24003.75
383.00	24419.59
384.00	24162.91
385.00	23879.71
386.00	23660.48
387.00	23864.10
388.00	24341.57
389.00	24884.58
390.00	25440.84
391.00	25792.70
392.00	25957.32
393.00	26323.23
394.00	26681.33
395.00	27064.39
396.00	27129.15
397.00	27370.22
398.00	27505.98
399.00	27782.16
400.00	27573.07
401.00	27558.25
402.00	27497.39
403.00	27835.21
404.00	28097.35
405.00	28129.34
406.00	28231.54
407.00	28095.01
408.00	27926.49
409.00	27923.37
410.00	28009.19
411.00	28300.20
412.00	27841.45
413.00	27307.03
414.00	26558.06
415.00	26145.34
416.00	25933.92
417.00	26061.09
418.00	26491.74
419.00	26914.60
420.00	27207.17
421.00	27626.90
422.00	28110.61
423.00	28634.11
424.00	28810.43
425.00	28886.89
426.00	28845.54
427.00	28680.92
428.00	28436.73
429.00	28412.54
430.00	28484.32
431.00	28475.74
432.00	28455.45
433.00	28395.38
434.00	28568.58
435.00	28701.21
436.00	28820.58
437.00	29128.75
438.00	29372.16
439.00	29847.29
440.00	30371.57
441.00	30760.88
442.00	31065.93
443.00	30941.10
444.00	30907.55
445.00	30602.50
446.00	30434.77
447.00	30308.38
448.00	30133.62
449.00	29843.39
450.00	29466.56
451.00	29179.46
452.00	28683.27
453.00	28134.02
454.00	27722.87
455.00	27810.25
456.00	28083.31
457.00	28634.89
458.00	29024.98
459.00	29430.68
460.00	29581.25
461.00	29701.40
462.00	29727.14
463.00	29534.44
464.00	29412.73
465.00	29305.07
466.00	29319.89
467.00	29532.88
468.00	29688.92
469.00	30111.77
470.00	30460.51
471.00	30905.99
472.00	31072.95
473.00	30976.21
474.00	31077.63
475.00	31180.62
476.00	31456.80
477.00	31658.09
478.00	31851.57
479.00	31962.36
480.00	31389.70
481.00	31083.87
482.00	30567.40
483.00	30400.44
484.00	30420.72
485.00	30724.99
486.00	31148.63
487.00	31083.09
488.00	30926.28
489.00	30874.01
490.00	30732.01
491.00	30709.39
492.00	30723.43
493.00	30924.72
494.00	31115.86
495.00	31292.96
496.00	31618.30
497.00	31832.85
498.00	32147.26
499.00	32323.58
500.00	32334.50
501.00	32134.00
502.00	32237.76
503.00	32442.17
504.00	32828.35
505.00	32932.90
506.00	32986.73
507.00	33060.85
508.00	32968.01
509.00	32961.76
510.00	32830.69
511.00	32702.75
512.00	32588.06
513.00	32480.39
514.00	32389.89
515.00	32286.13
516.00	32031.01
517.00	31864.83
518.00	31578.51
519.00	31222.75
520.00	31363.18
521.00	31564.46
522.00	31863.27
523.00	31915.55
524.00	32151.94
525.00	32488.98
526.00	32439.04
527.00	32113.71
528.00	31327.29
529.00	30805.35
530.00	30581.44
531.00	30925.50
532.00	31282.04
533.00	31598.79
534.00	31773.55
535.00	31874.20
536.00	31572.27
537.00	31313.25
538.00	31324.95
539.00	31690.07
540.00	31997.46
541.00	32139.46
542.00	32063.78
543.00	32032.57
544.00	31922.57
545.00	31798.52
546.00	31459.92
547.00	31158.77
548.00	31037.06
549.00	31139.27
550.00	31215.72
551.00	31228.21
552.00	31345.23
553.00	31438.08
554.00	31770.43
555.00	32143.36
556.00	32482.73
557.00	33035.10
558.00	33574.20
559.00	34228.77
560.00	34384.81
561.00	34307.57
562.00	33713.86
563.00	33401.79
564.00	32925.10
565.00	33092.83
566.00	33328.45
567.00	33567.18
568.00	33670.17
569.00	33521.93
570.00	33976.00
571.00	34396.51
572.00	34838.09
573.00	34856.04
574.00	34820.93
575.00	34870.86
576.00	35064.35
577.00	35063.57
578.00	35106.48
579.00	34760.08
580.00	34804.55
581.00	34487.01
582.00	34683.62
583.00	34602.48
584.00	35016.75
585.00	35287.48
586.00	35947.51
587.00	36121.49
588.00	36324.33
589.00	36575.55
590.00	37215.30
591.00	37731.00
592.00	38081.30
593.00	38180.38
594.00	38071.15
595.00	37854.26
596.00	37772.35
597.00	38085.20
598.00	38718.70
599.00	39307.74
600.00	39793.79
601.00	39830.46
602.00	39913.16
603.00	39782.09
604.00	39926.42
605.00	40378.92
606.00	40595.03
607.00	40847.81
608.00	40805.68
609.00	41219.95
610.00	41538.27
611.00	41779.34
612.00	41988.43
613.00	42300.50
614.00	42515.83
615.00	42699.95
616.00	42468.24
617.00	42392.56
618.00	42492.43
619.00	42715.56
620.00	43093.94
621.00	43361.54
622.00	43733.69
623.00	44113.64
624.00	43800.79
625.00	43533.18
626.00	43207.85
627.00	43540.99
628.00	43907.67
629.00	44164.35
630.00	44625.43
631.00	44366.41
632.00	43679.08
633.00	42587.61
634.00	41383.01
635.00	39711.09
636.00	37982.21
637.00	37208.28
638.00	37617.09
639.00	38763.95
640.00	39992.73
641.00	41155.20
642.00	41936.94
643.00	42826.34
644.00	43597.16
645.00	44491.24
646.00	45325.25
647.00	46008.69
648.00	46576.66
649.00	46759.22
650.00	46769.36
651.00	46480.70
652.00	46051.60
653.00	45998.55
654.00	46458.85
655.00	47533.94
656.00	48612.15
657.00	49468.78
658.00	49939.23
659.00	50288.75
660.00	50368.33
661.00	50480.67
662.00	50344.92
663.00	50128.81
664.00	49824.54
665.00	49718.44
666.00	50032.07
667.00	49936.89
668.00	49467.22
669.00	48641.79
670.00	48180.71
671.00	48317.24
672.00	48932.80
673.00	49815.18
674.00	50753.74
675.00	51449.66
676.00	51719.60
677.00	51604.91
678.00	51240.57
679.00	51015.10
680.00	50993.25
681.00	51376.32
682.00	51946.63
683.00	52604.32
684.00	53123.92
685.00	53606.07
686.00	53680.97
687.00	53670.82
688.00	53412.59
689.00	53093.49
690.00	52733.05
691.00	52545.81
692.00	52724.47
693.00	53041.22
694.00	53448.47
695.00	53847.14
696.00	53986.02
697.00	54004.74
698.00	54080.42
699.00	54247.38
700.00	54610.94
701.00	54676.47
702.00	54568.81
703.00	54092.90
704.00	53508.55
705.00	53039.66
706.00	52856.32
707.00	53184.77
708.00	53652.88
709.00	54162.34
710.00	54367.52
711.00	54704.56
712.00	54757.61
713.00	54923.79
714.00	54743.57
715.00	54514.98
716.00	53977.43
717.00	53585.78
718.00	53248.75
719.00	53244.85
720.00	53248.75
721.00	53299.46
722.00	53272.93
723.00	53209.74
724.00	53197.26
725.00	52953.84
726.00	52952.28
727.00	53155.13
728.00	53428.19
729.00	53657.56
730.00	53873.67
731.00	54184.96
732.00	54422.14
733.00	54446.32
734.00	54456.46
735.00	54177.94
736.00	53716.86
737.00	53311.16
738.00	53180.87
739.00	53420.39
740.00	53685.65
741.00	54186.52
742.00	54443.98
743.00	54642.15
744.00	54740.45
745.00	55033.02
746.00	55335.73
747.00	55759.36
748.00	56142.43
749.00	56388.19
750.00	56314.85
751.00	55958.31
752.00	55789.79
753.00	55379.42
754.00	55255.37
755.00	55095.43
756.00	55210.90
757.00	55066.56
758.00	54884.78
759.00	54530.58
760.00	54230.99
761.00	54089.00
762.00	54138.15
763.00	54575.83
764.00	54951.88
765.00	55484.74
766.00	55850.64
767.00	56200.16
768.00	56232.93
769.00	56154.91
770.00	55916.96
771.00	55714.89
772.00	55607.23
773.00	55607.23
774.00	55783.55
775.00	55707.87
776.00	55614.25
777.00	55559.64
778.00	55743.76
779.00	56108.88
780.00	56346.06
781.00	56722.88
782.00	56844.59
783.00	56912.47
784.00	56616.78
785.00	56236.05
786.00	55824.90
787.00	55603.33
788.00	55502.68
789.00	55613.47
790.00	55600.21
791.00	55624.39
792.00	55462.11
793.00	55301.40
794.00	55175.01
795.00	55013.51
796.00	54997.13
797.00	55006.49
798.00	55171.89
799.00	55296.72
800.00	55370.05
801.00	55413.74
802.00	55558.08
803.00	55685.25
804.00	55931.00
805.00	56103.42
806.00	56241.51
807.00	55848.30
808.00	55148.48
809.00	54014.88
810.00	52660.49
811.00	51176.59
812.00	50007.11
813.00	49560.06
814.00	50097.61
815.00	51410.65
816.00	52892.99
817.00	53763.67
818.00	53807.36
819.00	53233.92
820.00	52491.97
821.00	52224.37
822.00	52531.76
823.00	53315.06
824.00	53854.95
825.00	54312.13
826.00	54558.67
827.00	54898.05
828.00	55160.19
829.00	55603.33
830.00	55831.14
831.00	55976.25
832.00	55701.63
833.00	55389.56
834.00	55274.09
835.00	55381.76
836.00	55806.17
837.00	56030.86
838.00	56243.85
839.00	56284.42
840.00	56414.71
841.00	56512.23
842.00	56562.17
843.00	56345.28
844.00	55938.80
845.00	55421.55
846.00	55131.32
847.00	55124.30
848.00	55208.56
849.00	55430.91
850.00	55692.27
851.00	56167.40
852.00	56568.41
853.00	56902.32
854.00	57162.90
855.00	57261.21
856.00	57209.71
857.00	57089.57
858.00	56935.09
859.00	56767.35
860.00	56648.77
861.00	56644.08
862.00	56782.96
863.00	56768.91
864.00	56565.29
865.00	56133.85
866.00	55409.06
867.00	54429.94
868.00	53350.95
869.00	52662.05
870.00	52417.08
871.00	52660.49
872.00	53117.68
873.00	53872.89
874.00	54572.71
875.00	55160.19
876.00	55456.65
877.00	55636.09
878.00	55760.14
879.00	55994.20
880.00	56346.06
881.00	56783.74
882.00	57039.64
883.00	57149.64
884.00	57038.08
885.00	56676.07
886.00	56319.53
887.00	55994.20
888.00	55988.73
889.00	56041.01
890.00	56318.75
891.00	56557.49
892.00	56904.66
893.00	56963.18
894.00	57061.48
895.00	56960.84
896.00	56992.04
897.00	56839.91
898.00	56683.09
899.00	56432.66
900.00	56190.80
901.00	55736.74
902.00	55267.85
903.00	54710.80
904.00	54355.82
905.00	54233.33
906.00	54492.35
907.00	54898.05
908.00	55295.16
909.00	55715.67
910.00	55811.63
911.00	55732.06
912.00	55441.83
913.00	55453.53
914.00	55487.08
915.00	55625.95
916.00	55630.63
917.00	55751.56
918.00	55923.98
919.00	56051.15
920.00	56347.62
921.00	56555.14
922.00	56829.77
923.00	56718.20
924.00	56539.54
925.00	56082.36
926.00	55758.58
927.00	55137.56
928.00	54702.22
929.00	54399.51
930.00	54433.06
931.00	54731.87
932.00	55011.95
933.00	55428.57
934.00	55629.85
935.00	55694.61
936.00	55655.60
937.00	55643.12
938.00	55586.94
939.00	55505.80
940.00	55332.60
941.00	55097.77
942.00	54706.12
943.00	54375.33
944.00	54204.47
945.00	54204.47
946.00	54275.46
947.00	54100.70
948.00	53986.80
949.00	53574.86
950.00	53529.61
951.00	53276.83
952.00	53259.67
953.00	53181.65
954.00	53442.23
955.00	53751.18
956.00	54087.44
957.00	54241.14
958.00	54436.96
959.00	54475.97
960.00	54447.10
961.00	54144.39
962.00	54187.30
963.00	54199.79
964.00	54421.36
965.00	54233.33
966.00	54170.92
967.00	54248.94
968.00	54501.71
969.00	54638.25
970.00	54890.24
971.00	55114.15
972.00	55258.49
973.00	55064.22
974.00	54762.29
975.00	54672.57
976.00	54594.56
977.00	54666.33
978.00	54591.44
979.00	54588.31
980.00	54445.54
981.00	54639.81
982.00	54591.44
983.00	54591.44
984.00	54332.42
985.00	54262.98
986.00	54183.40
987.00	54119.43
988.00	54260.64
989.00	54234.11
990.00	54171.70
991.00	53676.29
992.00	53386.06
993.00	53119.24
994.00	53243.29
995.00	53460.18
996.00	53703.59
997.00	53985.24
998.00	54216.95
999.00	54337.88
1000.00	54413.55
1001.00	54345.68
1002.00	54301.21
1003.00	54095.24
1004.00	54077.30
1005.00	54064.03
1006.00	54213.83
1007.00	54092.12
1008.00	53973.53
1009.00	53710.61
1010.00	53695.79
1011.00	53546.00
1012.00	53599.83
1013.00	53384.50
1014.00	53408.68
1015.00	53387.62
1016.00	53552.24
1017.00	53832.32
1018.00	54028.15
1019.00	54130.35
1020.00	54032.05
1021.00	53762.89
1022.00	53484.36
1023.00	53140.30
1024.00	52964.76
1025.00	53047.46
1026.00	53258.11
1027.00	53503.09
1028.00	53576.42
1029.00	53585.00
1030.00	53650.54
1031.00	53829.20
1032.00	53922.04
1033.00	53919.70
1034.00	53804.23
1035.00	53854.17
1036.00	53888.49
1037.00	53954.03
1038.00	53887.71
1039.00	53862.75
1040.00	53709.83
1041.00	53499.19
1042.00	53200.38
1043.00	53101.29
1044.00	53008.45
1045.00	52878.94
1046.00	52707.30
1047.00	52490.41
1048.00	52298.49
1049.00	52089.40
1050.00	52126.07
1051.00	52236.86
1052.00	52366.37
1053.00	52541.13
1054.00	52726.81
1055.00	52731.49
1056.00	52570.77
1057.00	52257.92
1058.00	51839.75
1059.00	51246.81
1060.00	50790.41
1061.00	50684.30
1062.00	50811.47
1063.00	51054.11
1064.00	51132.12
1065.00	51154.75
1066.00	51146.17
1067.00	51232.77
1068.00	51447.32
1069.00	51696.19
1070.00	51930.25
1071.00	52310.97
1072.00	52460.77
1073.00	52495.10
1074.00	52282.89
1075.00	51977.84
1076.00	51578.39
1077.00	51215.60
1078.00	50988.57
1079.00	51020.56
1080.00	51036.94
1081.00	51139.14
1082.00	51217.16
1083.00	51265.53
1084.00	51579.95
1085.00	51677.47
1086.00	51767.97
1087.00	51640.80
1088.00	51514.41
1089.00	51413.77
1090.00	51150.85
1091.00	51048.64
1092.00	50871.54
1093.00	50901.19
1094.00	51004.17
1095.00	51054.89
1096.00	51141.49
1097.00	51044.74
1098.00	50882.47
1099.00	50632.81
1100.00	50316.84
1101.00	49854.97
1102.00	49411.05
1103.00	49227.71
1104.00	49317.43
1105.00	49534.32
1106.00	49602.97
1107.00	49837.03
1108.00	49954.83
1109.00	50192.01
1110.00	50432.30
1111.00	50453.37
1112.00	50561.81
1113.00	50405.78
1114.00	50344.92
1115.00	50000.08
1116.00	49675.53
1117.00	49336.93
1118.00	49076.35
1119.00	48736.20
1120.00	48605.91
1121.00	48559.09
1122.00	48766.62
1123.00	48836.06
1124.00	48975.71
1125.00	48913.30
1126.00	48784.57
1127.00	48558.31
1128.00	48413.98
1129.00	48181.49
1130.00	47913.11
1131.00	47584.65
1132.00	47232.79
1133.00	46789.65
1134.00	46488.50
1135.00	46344.17
1136.00	46587.58
1137.00	46948.81
1138.00	47579.97
1139.00	47956.80
1140.00	48214.26
1141.00	48263.41
1142.00	48339.08
1143.00	48382.77
1144.00	48390.58
1145.00	48390.58
1146.00	48516.96
1147.00	48314.90
1148.00	48237.66
1149.00	48096.45
1150.00	48125.32
1151.00	48041.06
1152.00	47915.45
1153.00	47861.61
1154.00	47724.30
1155.00	47372.44
1156.00	47139.95
1157.00	46741.28
1158.00	46499.42
1159.00	46341.05
1160.00	46255.23
1161.00	46224.80
1162.00	46076.57
1163.00	45908.83
1164.00	45744.99
1165.00	45535.12
1166.00	45659.17
1167.00	45944.72
1168.00	46297.36
1169.00	46440.91
1170.00	46402.68
1171.00	46389.42
1172.00	46220.12
1173.00	46093.73
1174.00	45862.02
1175.00	45870.60
1176.00	45595.98
1177.00	45308.09
1178.00	44779.91
1179.00	44244.71
1180.00	44130.80
1181.00	44314.14
1182.00	44793.17
1183.00	44971.05
1184.00	44959.35
1185.00	45081.84
1186.00	45280.00
1187.00	45422.00
1188.00	45556.19
1189.00	45553.85
1190.00	45702.08
1191.00	45770.74
1192.00	45674.77
1193.00	45581.15
1194.00	45405.61
1195.00	45492.21
1196.00	45576.47
1197.00	45523.42
1198.00	45532.78
1199.00	45521.08
1200.00	45737.19
1201.00	45755.13
1202.00	45770.74
1203.00	45916.63
1204.00	46024.29
1205.00	46130.40
1206.00	46188.13
1207.00	46198.27
1208.00	46299.70
1209.00	46102.31
1210.00	46122.60
1211.00	45960.32
1212.00	46135.86
1213.00	46119.48
1214.00	46148.34
1215.00	45880.74
1216.00	45688.04
1217.00	45474.27
1218.00	45412.63
1219.00	45246.46
1220.00	45092.76
1221.00	44828.28
1222.00	44731.54
1223.00	44489.68
1224.00	44288.40
1225.00	43839.01
1226.00	43856.18
1227.00	43700.92
1228.00	43765.68
1229.00	43572.97
1230.00	43618.22
1231.00	43800.01
1232.00	44013.77
1233.00	44243.15
1234.00	44230.66
1235.00	44248.61
1236.00	44022.36
1237.00	43892.85
1238.00	43745.39
1239.00	43653.33
1240.00	43377.15
1241.00	42894.22
1242.00	42241.21
1243.00	41287.83
1244.00	40044.23
1245.00	38923.11
1246.00	37945.55
1247.00	37485.24
1248.00	37088.13
1249.00	37100.61
1250.00	37367.43
1251.00	38121.09
1252.00	39029.99
1253.00	40133.17
1254.00	40818.94
1255.00	41339.32
1256.00	41665.44
1257.00	41897.93
1258.00	42025.10
1259.00	41600.68
1260.00	41383.01
1261.00	41279.25
1262.00	41321.38
1263.00	41319.82
1264.00	41118.53
1265.00	41031.15
1266.00	40891.50
1267.00	41152.08
1268.00	41400.18
1269.00	41521.10
1270.00	41265.99
1271.00	41155.98
1272.00	41248.04
1273.00	41429.82
1274.00	41433.72
1275.00	41450.11
1276.00	41329.18
1277.00	40919.59
1278.00	40649.64
1279.00	40407.79
1280.00	40207.28
1281.00	40007.56
1282.00	39889.75
1283.00	40084.79
1284.00	40009.12
1285.00	40131.61
1286.00	40304.81
1287.00	40470.98
1288.00	40561.48
1289.00	40662.91
1290.00	40867.31
1291.00	40918.03
1292.00	40931.29
1293.00	40954.69
1294.00	41015.55
1295.00	41045.19
1296.00	40957.03
1297.00	40813.48
1298.00	40544.32
1299.00	40297.78
1300.00	40142.53
1301.00	40160.47
1302.00	40076.21
1303.00	40004.44
1304.00	39863.22
1305.00	39919.40
1306.00	39796.13
1307.00	39775.06
1308.00	39768.82
1309.00	39921.74
1310.00	40073.09
1311.00	40145.65
1312.00	40224.45
1313.00	40234.59
1314.00	40032.52
1315.00	39855.42
1316.00	39665.84
1317.00	39739.18
1318.00	39675.20
1319.00	39494.20
1320.00	39410.72
1321.00	39351.43
1322.00	39580.02
1323.00	39493.42
1324.00	39453.63
1325.00	39181.35
1326.00	39019.85
1327.00	38972.26
1328.00	38771.75
1329.00	38650.83
1330.00	38573.59
1331.00	38630.54
1332.00	38928.57
1333.00	39143.12
1334.00	39445.05
1335.00	39526.19
1336.00	39469.23
1337.00	39488.74
1338.00	39479.38
1339.00	39680.66
1340.00	39633.85
1341.00	39614.35
1342.00	39415.40
1343.00	39526.97
1344.00	39449.73
1345.00	39482.50
1346.00	39363.13
1347.00	39347.53
1348.00	39177.45
1349.00	38969.92
1350.00	38810.76
1351.00	38771.75
1352.00	38702.32
1353.00	38630.54
1354.00	38558.77
1355.00	38543.16
1356.00	38401.17
1357.00	38345.78
1358.00	38307.55
1359.00	38499.47
1360.00	38608.70
1361.00	38553.30
1362.00	38596.21
1363.00	38426.92
1364.00	38289.60
1365.00	37966.61
1366.00	37823.84
1367.00	37720.07
1368.00	37576.52
1369.00	37506.30
1370.00	37375.23
1371.00	37417.36
1372.00	37324.52
1373.00	37380.70
1374.00	37285.51
1375.00	37163.81
1376.00	37087.35
1377.00	37003.87
1378.00	37063.94
1379.00	36865.78
1380.00	36666.05
1381.00	36467.89
1382.00	36443.70
1383.00	36513.14
1384.00	36485.05
1385.00	36548.25
1386.00	36598.96
1387.00	36628.60
1388.00	36765.14
1389.00	36705.06
1390.00	36735.49
1391.00	36467.89
1392.00	36242.42
1393.00	35970.13
1394.00	35789.13
1395.00	35819.56
1396.00	35807.86
1397.00	35876.51
1398.00	35833.60
1399.00	35831.26
1400.00	35829.70
1401.00	35626.07
1402.00	35409.96
1403.00	35033.14
1404.00	34847.46
1405.00	34856.04
1406.00	34892.71
1407.00	35058.10
1408.00	35037.82
1409.00	35101.01
1410.00	35213.36
1411.00	35386.56
1412.00	35421.67
1413.00	35309.32
1414.00	35023.00
1415.00	34810.79
1416.00	34547.09
1417.00	34334.10
1418.00	34136.71
1419.00	33775.49
1420.00	33476.68
1421.00	33242.63
1422.00	33362.00
1423.00	33390.08
1424.00	33360.44
1425.00	33304.26
1426.00	33432.21
1427.00	33714.64
1428.00	33824.64
1429.00	33986.14
1430.00	34095.36
1431.00	34345.80
1432.00	34502.62
1433.00	34675.82
1434.00	34649.29
1435.00	34568.15
1436.00	34229.55
1437.00	34045.43
1438.00	33722.44
1439.00	33730.24
1440.00	33654.56
1441.00	33748.18
1442.00	33710.74
1443.00	33711.52
1444.00	33689.67
1445.00	33673.29
1446.00	33805.92
1447.00	33908.12
1448.00	33937.77
1449.00	33901.10
1450.00	33862.09
1451.00	33910.46
1452.00	33724.78
1453.00	33608.53
1454.00	33200.50
1455.00	32934.46
1456.00	32577.14
1457.00	32651.25
1458.00	32708.99
1459.00	32792.47
1460.00	32923.54
1461.00	32924.32
1462.00	32810.41
1463.00	32460.89
1464.00	32155.06
1465.00	32035.69
1466.00	31781.35
1467.00	31613.62
1468.00	31555.88
1469.00	31648.72
1470.00	31771.99
1471.00	31837.53
1472.00	31641.70
1473.00	31519.21
1474.00	31262.54
1475.00	31189.98
1476.00	30984.79
1477.00	30860.74
1478.00	30794.43
1479.00	30750.74
1480.00	30513.56
1481.00	30451.93
1482.00	30362.21
1483.00	30490.94
1484.00	30572.08
1485.00	30703.15
1486.00	30712.51
1487.00	30756.20
1488.00	30792.87
1489.00	30785.07
1490.00	30604.06
1491.00	30417.60
1492.00	30256.11
1493.00	30002.55
1494.00	29614.02
1495.00	29117.82
1496.00	28441.41
1497.00	28027.14
1498.00	27873.44
1499.00	28029.48
1500.00	28338.43
1501.00	28582.62
1502.00	28831.50
1503.00	28808.09
1504.00	28822.92
1505.00	28951.65
1506.00	28938.38
1507.00	28903.28
1508.00	28595.10
1509.00	28401.62
1510.00	28263.53
1511.00	28158.99
1512.00	28197.21
1513.00	28154.30
1514.00	28277.57
1515.00	28421.13
1516.00	28528.01
1517.00	28656.74
1518.00	28652.84
1519.00	28550.63
1520.00	28410.98
1521.00	28081.75
1522.00	27891.38
1523.00	27751.73
1524.00	27783.72
1525.00	27942.10
1526.00	28111.39
1527.00	28454.67
1528.00	28543.61
1529.00	28606.81
1530.00	28539.71
1531.00	28553.76
1532.00	28499.92
1533.00	28524.89
1534.00	28395.38
1535.00	28272.11
1536.00	28050.54
1537.00	28076.29
1538.00	28000.61
1539.00	28017.77
1540.00	27996.71
1541.00	28134.02
1542.00	28127.00
1543.00	28248.71
1544.00	28286.15
1545.00	28509.29
1546.00	28448.43
1547.00	28390.70
1548.00	28272.11
1549.00	28151.18
1550.00	27977.20
1551.00	27823.51
1552.00	27694.78
1553.00	27790.74
1554.00	27717.40
1555.00	27826.63
1556.00	27882.02
1557.00	28040.40
1558.00	28102.03
1559.00	28098.91
1560.00	28053.66
1561.00	28079.41
1562.00	28094.23
1563.00	28215.16
1564.00	28149.62
1565.00	28121.54
1566.00	27892.94
1567.00	27962.38
1568.00	27975.64
1569.00	28102.03
1570.00	27906.99
1571.00	27630.02
1572.00	27516.90
1573.00	27385.05
1574.00	27380.37
1575.00	27072.20
1576.00	26995.74
1577.00	26874.03
1578.00	26895.10
1579.00	26828.78
1580.00	26782.75
1581.00	26686.01
1582.00	26715.65
1583.00	26595.51
1584.00	26522.17
1585.00	26371.60
1586.00	26398.12
1587.00	26153.93
1588.00	26100.09
1589.00	26008.81
1590.00	26267.05
1591.00	26288.12
1592.00	26377.06
1593.00	26255.35
1594.00	26302.16
1595.00	26132.08
1596.00	26366.91
1597.00	26373.94
1598.00	26524.51
1599.00	26280.32
1600.00	26234.28
1601.00	26074.35
1602.00	26059.52
1603.00	25825.47
1604.00	25853.56
1605.00	25799.73
1606.00	25835.61
1607.00	25873.06
1608.00	25790.36
1609.00	25791.14
1610.00	25634.33
1611.00	25654.61
1612.00	25589.86
1613.00	25518.86
1614.00	25517.30
1615.00	25529.78
1616.00	25394.03
1617.00	25267.64
1618.00	25090.54
1619.00	24956.35
1620.00	24789.39
1621.00	24764.43
1622.00	24797.98
1623.00	24811.24
1624.00	24757.41
1625.00	24614.63
1626.00	24615.41
1627.00	24474.20
1628.00	24485.12
1629.00	24249.51
1630.00	24257.31
1631.00	24195.68
1632.00	24176.95
1633.00	24037.30
1634.00	23941.34
1635.00	24070.07
1636.00	24077.87
1637.00	24170.71
1638.00	23914.03
1639.00	23878.15
1640.00	23626.15
1641.00	23463.09
1642.00	23144.78
1643.00	22934.91
1644.00	22750.01
1645.00	22842.85
1646.00	23172.08
1647.00	23594.16
1648.00	24070.85
1649.00	24310.36
1650.00	24474.20
1651.00	24350.93
1652.00	24367.32
1653.00	24314.27
1654.00	24173.83
1655.00	23953.82
1656.00	23582.46
1657.00	23349.96
1658.00	23127.61
1659.00	23116.69
1660.00	23268.83
1661.00	23366.35
1662.00	23537.99
1663.00	23531.75
1664.00	23672.96
1665.00	23825.09
1666.00	23955.38
1667.00	23869.56
1668.00	23651.11
1669.00	23554.37
1670.00	23555.93
1671.00	23654.23
1672.00	23606.64
1673.00	23650.33
1674.00	23534.09
1675.00	23452.17
1676.00	23129.95
1677.00	22833.49
1678.00	22589.29
1679.00	22600.99
1680.00	22585.39
1681.00	22466.80
1682.00	22261.62
1683.00	21932.38
1684.00	21677.26
1685.00	21130.36
1686.00	20625.58
1687.00	19791.57
1688.00	18963.80
1689.00	18289.73
1690.00	17997.94
1691.00	18175.82
1692.00	18548.75
1693.00	19072.25
1694.00	19686.25
1695.00	20205.84
1696.00	20737.15
1697.00	21039.86
1698.00	21387.04
1699.00	21630.45
1700.00	21795.07
1701.00	22012.74
1702.00	22086.86
1703.00	22242.89
1704.00	22249.91
1705.00	22384.88
1706.00	22281.90
1707.00	22217.93
1708.00	22053.31
1709.00	21954.23
1710.00	21825.50
1711.00	21793.51
1712.00	21754.50
1713.00	21843.44
1714.00	21876.99
1715.00	21978.41
1716.00	22047.07
1717.00	22087.64
1718.00	22100.12
1719.00	22013.52
1720.00	21895.71
1721.00	21790.39
1722.00	21746.70
1723.00	21751.38
1724.00	21719.39
1725.00	21816.13
1726.00	21784.15
1727.00	21827.06
1728.00	21713.93
1729.00	21677.26
1730.00	21754.50
1731.00	21693.65
1732.00	21667.90
1733.00	21530.59
1734.00	21507.18
1735.00	21320.72
1736.00	21319.16
1737.00	21100.71
1738.00	21010.21
1739.00	20756.65
1740.00	20685.65
1741.00	20726.22
1742.00	20725.44
1743.00	20771.47
1744.00	20735.59
1745.00	20698.92
1746.00	20645.09
1747.00	20516.36
1748.00	20534.30
1749.00	20549.90
1750.00	20563.95
1751.00	20528.06
1752.00	20535.08
1753.00	20577.99
1754.00	20471.89
1755.00	20414.15
1756.00	20498.41
1757.00	20433.66
1758.00	20336.13
1759.00	20154.35
1760.00	20166.06
1761.00	20014.70
1762.00	19934.34
1763.00	19917.18
1764.00	19973.35
1765.00	19999.10
1766.00	19861.01
1767.00	19845.40
1768.00	19719.01
1769.00	19666.74
1770.00	19679.22
1771.00	19649.58
1772.00	19680.78
1773.00	19672.20
1774.00	19644.12
1775.00	19699.51
1776.00	19604.33
1777.00	19648.02
1778.00	19513.83
1779.00	19478.72
1780.00	19481.06
1781.00	19466.24
1782.00	19389.78
1783.00	19144.80
1784.00	19076.15
1785.00	19010.61
1786.00	19022.31
1787.00	18939.62
1788.00	18855.36
1789.00	18911.53
1790.00	18837.41
1791.00	18838.97
1792.00	18656.41
1793.00	18653.29
1794.00	18511.30
1795.00	18506.62
1796.00	18376.33
1797.00	18366.18
1798.00	18194.54
1799.00	18102.48
1800.00	17920.70
1801.00	17898.08
1802.00	18015.88
1803.00	18075.18
1804.00	18100.14
1805.00	18000.28
1806.00	18044.75
1807.00	18050.21
1808.00	18051.77
1809.00	18004.96
1810.00	17984.68
1811.00	17926.16
1812.00	17769.35
1813.00	17611.75
1814.00	17476.00
1815.00	17536.85
1816.00	17506.43
1817.00	17453.37
1818.00	17358.19
1819.00	17331.67
1820.00	17354.29
1821.00	17276.27
1822.00	17202.94
1823.00	17245.07
1824.00	17255.21
1825.00	17240.39
1826.00	17127.26
1827.00	17071.87
1828.00	17159.25
1829.00	17126.48
1830.00	16947.82
1831.00	16765.26
1832.00	16644.33
1833.00	16682.56
1834.00	16579.57
1835.00	16561.63
1836.00	16486.73
1837.00	16409.50
1838.00	16374.39
1839.00	16321.34
1840.00	16388.43
1841.00	16382.19
1842.00	16446.94
1843.00	16312.75
1844.00	16184.02
1845.00	16042.03
1846.00	15932.81
1847.00	15789.25
1848.00	15689.39
1849.00	15749.46
1850.00	15757.27
1851.00	15772.87
1852.00	15674.57
1853.00	15663.65
1854.00	15502.15
1855.00	15398.38
1856.00	15294.62
1857.00	15406.97
1858.00	15378.10
1859.00	15383.56
1860.00	15243.13
1861.00	15233.77
1862.00	15094.89
1863.00	15105.04
1864.00	15049.64
1865.00	14961.48
1866.00	14919.35
1867.00	14989.57
1868.00	15037.16
1869.00	14959.14
1870.00	14812.47
1871.00	14740.69
1872.00	14635.37
1873.00	14512.88
1874.00	14455.15
1875.00	14421.60
1876.00	14425.50
1877.00	14404.44
1878.00	14399.76
1879.00	14271.03
1880.00	14191.45
1881.00	14057.26
1882.00	13969.88
1883.00	13980.02
1884.00	13901.22
1885.00	13844.27
1886.00	13642.98
1887.00	13619.58
1888.00	13614.12
1889.00	13545.46
1890.00	13444.04
1891.00	13336.37
1892.00	13459.64
1893.00	13486.17
1894.00	13554.04
1895.00	13464.32
1896.00	13314.53
1897.00	13255.23
1898.00	13214.66
1899.00	13212.32
1900.00	13160.05
1901.00	12991.53
1902.00	12924.44
1903.00	12651.38
1904.00	12295.61
1905.00	11655.87
1906.00	10845.26
1907.00	9914.51
1908.00	9105.46
1909.00	8405.64
1910.00	8074.07
1911.00	7889.95
1912.00	7996.83
1913.00	8179.39
1914.00	8531.25
1915.00	8996.24
1916.00	9491.65
1917.00	9887.20
1918.00	10076.79
1919.00	10115.02
1920.00	10063.52
1921.00	9985.51
1922.00	9832.59
1923.00	9673.43
1924.00	9572.01
1925.00	9511.94
1926.00	9479.95
1927.00	9412.07
1928.00	9486.97
1929.00	9544.70
1930.00	9665.63
1931.00	9720.24
1932.00	9782.66
1933.00	9872.38
1934.00	9885.64
1935.00	9936.35
1936.00	9938.69
1937.00	9974.58
1938.00	9967.56
1939.00	10015.93
1940.00	10072.11
1941.00	10033.10
1942.00	10088.49
1943.00	10032.32
1944.00	10118.92
1945.00	10102.53
1946.00	10189.91
1947.00	10187.57
1948.00	10144.66
1949.00	10049.48
1950.00	10079.91
1951.00	10027.64
1952.00	9993.31
1953.00	9876.28
1954.00	9923.09
1955.00	9891.10
1956.00	9827.91
1957.00	9661.73
1958.00	9579.03
1959.00	9490.87
1960.00	9410.51
1961.00	9311.43
1962.00	9298.95
1963.00	9299.73
1964.00	9276.32
1965.00	9192.84
1966.00	9171.78
1967.00	9168.66
1968.00	9183.48
1969.00	9151.49
1970.00	9194.40
1971.00	9168.66
1972.00	9164.76
1973.00	9061.77
1974.00	9042.27
1975.00	8992.34
1976.00	8982.98
1977.00	9030.57
1978.00	9060.99
1979.00	9132.77
1980.00	9174.12
1981.00	9207.67
1982.00	9202.99
1983.00	9178.02
1984.00	9143.69
1985.00	9073.48
1986.00	9004.04
1987.00	8877.65
1988.00	8786.37
1989.00	8698.21
1990.00	8688.85
1991.00	8627.99
1992.00	8514.87
1993.00	8386.92
1994.00	8347.13
1995.00	8294.86
1996.00	8179.39
1997.00	8098.25
1998.00	8088.89
1999.00	8067.05
2000.00	8015.55
2001.00	7918.03
2002.00	7955.48
2003.00	7921.15
2004.00	7916.47
2005.00	7837.67
2006.00	7818.95
2007.00	7737.81
2008.00	7703.48
2009.00	7648.87
2010.00	7644.97
2011.00	7634.05
2012.00	7628.59
2013.00	7641.07
2014.00	7565.39
2015.00	7490.49
2016.00	7426.52
2017.00	7401.55
2018.00	7407.02
2019.00	7422.62
2020.00	7420.28
2021.00	7397.65
2022.00	7282.19
2023.00	7218.99
2024.00	7154.24
2025.00	7113.67
2026.00	7079.34
2027.00	7032.53
2028.00	7087.14
2029.00	7105.87
2030.00	7158.92
2031.00	7152.68
2032.00	7196.37
2033.00	7126.93
2034.00	7043.45
2035.00	6943.59
2036.00	6945.93
2037.00	7009.12
2038.00	6969.34
2039.00	6956.85
2040.00	6876.49
2041.00	6928.77
2042.00	6933.45
2043.00	6888.20
2044.00	6804.72
2045.00	6740.74
2046.00	6747.76
2047.00	6745.42
>>>>>End Processed Spectral Data<<<<<
