SpectraSuite Data File
++++++++++++++++++++++++++++++++++++
Date: Thu Nov 16 13:32:49 EST 2017
User: cheriyan
Dark Spectrum Present: No
Reference Spectrum Present: No
Number of Sampled Component Spectra: 1
Spectrometers: USB2+H05261
Integration Time (usec): 90000 (USB2+H05261)
Spectra Averaged: 1 (USB2+H05261)
Boxcar Smoothing: 1 (USB2+H05261)
Correct for Electrical Dark: No (USB2+H05261)
Strobe/Lamp Enabled: No (USB2+H05261)
Correct for Detector Non-linearity: No (USB2+H05261)
Correct for Stray Light: No (USB2+H05261)
Number of Pixels in Processed Spectrum: 2048
>>>>>Begin Processed Spectral Data<<<<<
0.00	369.80
1.00	369.80
2.00	351.08
3.00	307.39
4.00	261.36
5.00	248.10
6.00	259.80
7.00	266.04
8.00	259.02
9.00	273.06
10.00	265.26
11.00	273.06
12.00	241.86
13.00	250.44
14.00	242.64
15.00	256.68
16.00	243.42
17.00	280.08
18.00	276.96
19.00	302.71
20.00	285.55
21.00	301.15
22.00	308.95
23.00	734.15
24.00	2441.18
25.00	4241.05
26.00	5652.39
27.00	5753.04
28.00	5628.21
29.00	5455.01
30.00	5270.89
31.00	5202.23
32.00	5160.88
33.00	5216.27
34.00	5200.67
35.00	5082.08
36.00	4823.06
37.00	4698.24
38.00	4687.31
39.00	4830.09
40.00	4921.37
41.00	5002.50
42.00	4935.41
43.00	4872.22
44.00	4895.62
45.00	5140.60
46.00	5474.51
47.00	5760.84
48.00	5884.11
49.00	5874.74
50.00	5832.62
51.00	5784.24
52.00	5846.66
53.00	5835.74
54.00	5998.79
55.00	6211.00
56.00	6556.62
57.00	6882.74
58.00	7132.39
59.00	7371.13
60.00	7489.71
61.00	7478.01
62.00	7382.83
63.00	7128.49
64.00	6849.97
65.00	6499.67
66.00	6298.38
67.00	6158.73
68.00	6068.23
69.00	6044.82
70.00	6240.65
71.00	6458.32
72.00	6736.84
73.00	6846.85
74.00	6995.08
75.00	6904.58
76.00	6736.84
77.00	6423.21
78.00	6155.61
79.00	5861.48
80.00	5651.61
81.00	5434.72
82.00	5226.42
83.00	4982.22
84.00	4800.44
85.00	4659.23
86.00	4541.42
87.00	4488.37
88.00	4443.90
89.00	4537.52
90.00	4757.53
91.00	5192.09
92.00	5672.68
93.00	6127.52
94.00	6427.11
95.00	6643.22
96.00	6644.78
97.00	6596.41
98.00	6411.51
99.00	6246.89
100.00	6167.31
101.00	6284.34
102.00	6480.94
103.00	6661.94
104.00	6648.68
105.00	6646.34
106.00	6594.85
107.00	6625.28
108.00	6621.38
109.00	6604.99
110.00	6638.54
111.00	6598.75
112.00	6593.29
113.00	6581.59
114.00	6662.72
115.00	6846.07
116.00	7084.80
117.00	7563.05
118.00	7925.83
119.00	8318.26
120.00	8455.58
121.00	8617.85
122.00	8624.09
123.00	8619.41
124.00	8645.94
125.00	8862.05
126.00	9087.52
127.00	9498.67
128.00	9646.13
129.00	9755.35
130.00	9421.44
131.00	9161.64
132.00	8702.11
133.00	8313.58
134.00	7644.97
135.00	6990.40
136.00	6209.44
137.00	5503.38
138.00	4899.52
139.00	4667.81
140.00	4903.42
141.00	5479.97
142.00	6203.20
143.00	6982.60
144.00	7739.37
145.00	8485.22
146.00	9068.80
147.00	9607.12
148.00	9924.65
149.00	10180.55
150.00	10186.01
151.00	9951.18
152.00	9401.93
153.00	8616.29
154.00	7749.51
155.00	6835.92
156.00	6134.54
157.00	5815.45
158.00	6138.44
159.00	6924.08
160.00	8044.42
161.00	9242.78
162.00	10447.37
163.00	11362.52
164.00	11943.75
165.00	12360.37
166.00	12717.69
167.00	13082.81
168.00	13350.42
169.00	13604.75
170.00	13777.95
171.00	13838.81
172.00	13866.89
173.00	14024.49
174.00	14213.29
175.00	14359.19
176.00	14330.32
177.00	14402.10
178.00	14643.17
179.00	15044.96
180.00	15215.04
181.00	15316.47
182.00	15286.04
183.00	15459.24
184.00	15619.18
185.00	15758.05
186.00	15749.46
187.00	15723.72
188.00	15573.14
189.00	15289.94
190.00	15105.82
191.00	15169.01
192.00	15496.69
193.00	15751.03
194.00	15787.69
195.00	15630.88
196.00	15362.50
197.00	15316.47
198.00	15513.07
199.00	15659.74
200.00	15748.68
201.00	15701.87
202.00	15625.42
203.00	15487.32
204.00	15312.56
205.00	15248.59
206.00	15124.54
207.00	15146.39
208.00	15271.22
209.00	15499.03
210.00	15715.92
211.00	15705.77
212.00	15636.34
213.00	15628.54
214.00	15920.32
215.00	16310.41
216.00	16683.34
217.00	16982.93
218.00	17292.66
219.00	17479.12
220.00	17565.72
221.00	17509.55
222.00	17211.52
223.00	16664.61
224.00	15988.98
225.00	15497.47
226.00	15302.42
227.00	15463.14
228.00	15960.11
229.00	16531.20
230.00	17178.75
231.00	17664.02
232.00	18151.63
233.00	18386.47
234.00	18610.38
235.00	18771.10
236.00	18911.53
237.00	18760.95
238.00	18625.98
239.00	18506.62
240.00	18462.15
241.00	18359.16
242.00	18289.73
243.00	18473.85
244.00	18799.96
245.00	19088.63
246.00	19230.62
247.00	19226.72
248.00	19132.32
249.00	19040.26
250.00	19158.06
251.00	19330.48
252.00	19381.20
253.00	19226.72
254.00	19286.79
255.00	19603.55
256.00	19953.07
257.00	20318.19
258.00	20499.19
259.00	20729.34
260.00	20693.46
261.00	20551.46
262.00	20143.43
263.00	19753.34
264.00	19447.51
265.00	19441.27
266.00	19589.50
267.00	19911.72
268.00	20038.11
269.00	20093.50
270.00	20003.78
271.00	20215.99
272.00	20568.63
273.00	21007.87
274.00	20886.94
275.00	20570.19
276.00	20068.53
277.00	19821.22
278.00	19658.16
279.00	19912.50
280.00	20486.71
281.00	21056.24
282.00	21604.70
283.00	21833.30
284.00	22093.88
285.00	22077.49
286.00	22110.26
287.00	21795.85
288.00	21390.16
289.00	20805.02
290.00	20165.28
291.00	19588.72
292.00	19360.13
293.00	19610.57
294.00	20144.21
295.00	20634.16
296.00	20866.66
297.00	20858.85
298.00	20865.88
299.00	20972.76
300.00	21047.66
301.00	20737.15
302.00	20618.56
303.00	20562.39
304.00	20659.13
305.00	20561.61
306.00	20320.53
307.00	20189.46
308.00	20093.50
309.00	20144.21
310.00	20323.65
311.00	20624.02
312.00	20671.61
313.00	20591.25
314.00	19949.17
315.00	19463.90
316.00	19105.01
317.00	19228.28
318.00	19570.78
319.00	19790.01
320.00	20121.59
321.00	20167.62
322.00	20121.59
323.00	19833.70
324.00	19612.13
325.00	19488.08
326.00	19332.04
327.00	19122.18
328.00	18579.17
329.00	17879.35
330.00	16963.42
331.00	16091.96
332.00	15325.05
333.00	14842.90
334.00	14695.44
335.00	14890.49
336.00	15619.17
337.00	16787.88
338.00	18578.39
339.00	20403.23
340.00	21965.15
341.00	22568.23
342.00	22341.97
343.00	21665.56
344.00	21190.43
345.00	21096.03
346.00	21642.15
347.00	22225.73
348.00	22684.47
349.00	22430.13
350.00	21606.27
351.00	20656.01
352.00	20015.48
353.00	20031.86
354.00	20510.11
355.00	21180.29
356.00	21987.77
357.00	22515.95
358.00	22684.47
359.00	22831.93
360.00	22899.80
361.00	23399.12
362.00	23707.29
363.00	24322.07
364.00	24435.19
365.00	24532.72
366.00	24354.83
367.00	24283.06
368.00	24088.79
369.00	23717.43
370.00	23430.32
371.00	23091.73
372.00	22892.78
373.00	22475.38
374.00	21910.54
375.00	21478.32
376.00	21205.25
377.00	21261.43
378.00	21635.91
379.00	22263.18
380.00	22970.80
381.00	23537.99
382.00	24109.86
383.00	24396.18
384.00	24305.68
385.00	23999.85
386.00	23935.88
387.00	24062.27
388.00	24548.32
389.00	25139.69
390.00	25841.85
391.00	26165.63
392.00	26337.27
393.00	26753.88
394.00	27261.78
395.00	27600.38
396.00	27623.78
397.00	27704.14
398.00	27940.54
399.00	28140.26
400.00	28011.53
401.00	27951.46
402.00	27778.26
403.00	28109.83
404.00	28402.40
405.00	28666.88
406.00	28877.53
407.00	28608.37
408.00	28283.81
409.00	28047.42
410.00	28207.36
411.00	28524.11
412.00	28060.68
413.00	27366.32
414.00	26618.13
415.00	26295.14
416.00	26185.91
417.00	26371.60
418.00	26720.34
419.00	27284.40
420.00	27590.24
421.00	28066.92
422.00	28411.76
423.00	28867.39
424.00	29132.65
425.00	29319.89
426.00	29252.80
427.00	28923.56
428.00	28691.07
429.00	28739.44
430.00	28839.30
431.00	28829.94
432.00	28685.61
433.00	28748.02
434.00	28901.72
435.00	29047.61
436.00	29284.00
437.00	29482.95
438.00	29809.06
439.00	30175.75
440.00	30774.92
441.00	31290.62
442.00	31534.04
443.00	31280.48
444.00	31032.38
445.00	30732.79
446.00	30636.83
447.00	30621.23
448.00	30479.24
449.00	30180.43
450.00	29757.57
451.00	29355.78
452.00	28822.14
453.00	28162.89
454.00	27711.94
455.00	27650.31
456.00	28021.67
457.00	28576.38
458.00	29154.49
459.00	29552.38
460.00	29909.71
461.00	30003.33
462.00	30064.96
463.00	29770.05
464.00	29650.69
465.00	29450.96
466.00	29491.53
467.00	29921.41
468.00	30263.13
469.00	30776.48
470.00	31012.88
471.00	31317.15
472.00	31384.24
473.00	31335.09
474.00	31545.74
475.00	31773.55
476.00	32075.48
477.00	32307.97
478.00	32291.59
479.00	32427.34
480.00	31938.17
481.00	31735.32
482.00	31072.17
483.00	30653.22
484.00	30713.29
485.00	31023.02
486.00	31477.08
487.00	31432.61
488.00	31392.05
489.00	31404.53
490.00	31273.46
491.00	31201.68
492.00	31243.03
493.00	31331.19
494.00	31459.92
495.00	31511.41
496.00	31890.58
497.00	32301.73
498.00	32560.75
499.00	32652.81
500.00	32584.94
501.00	32704.31
502.00	32838.50
503.00	32899.35
504.00	33014.82
505.00	33106.10
506.00	33152.13
507.00	33169.29
508.00	33028.08
509.00	33029.64
510.00	33080.35
511.00	33017.16
512.00	33013.26
513.00	32736.29
514.00	32755.02
515.00	32645.01
516.00	32512.38
517.00	32080.94
518.00	31738.44
519.00	31498.93
520.00	31743.91
521.00	31880.44
522.00	32109.81
523.00	32437.48
524.00	32815.87
525.00	33091.27
526.00	32780.76
527.00	32386.77
528.00	31750.93
529.00	31406.09
530.00	31147.07
531.00	31170.47
532.00	31407.65
533.00	31731.42
534.00	32072.36
535.00	32236.98
536.00	31992.78
537.00	31895.26
538.00	31955.33
539.00	32087.18
540.00	32222.16
541.00	32193.29
542.00	32346.98
543.00	32451.53
544.00	32396.14
545.00	32496.78
546.00	31999.80
547.00	31581.63
548.00	31239.91
549.00	31246.93
550.00	31244.59
551.00	31352.26
552.00	31629.22
553.00	31930.37
554.00	32087.96
555.00	32421.10
556.00	32910.27
557.00	33436.89
558.00	34077.42
559.00	34422.26
560.00	34605.60
561.00	34437.86
562.00	34082.88
563.00	33755.99
564.00	33294.90
565.00	33605.41
566.00	33841.81
567.00	33985.36
568.00	33927.63
569.00	33826.20
570.00	34325.52
571.00	34742.91
572.00	35271.09
573.00	35382.66
574.00	35345.99
575.00	35373.30
576.00	35500.47
577.00	35375.64
578.00	35391.24
579.00	35088.53
580.00	35224.28
581.00	34899.73
582.00	34980.87
583.00	34885.68
584.00	35236.77
585.00	35616.71
586.00	36282.20
587.00	36595.84
588.00	36842.37
589.00	37053.80
590.00	37436.09
591.00	37922.92
592.00	38221.73
593.00	38357.48
594.00	38149.95
595.00	38056.33
596.00	38184.28
597.00	38627.42
598.00	39125.18
599.00	39641.65
600.00	40107.42
601.00	40236.15
602.00	40252.53
603.00	40282.96
604.00	40570.85
605.00	41051.44
606.00	41123.21
607.00	41128.67
608.00	41161.44
609.00	41483.66
610.00	41856.58
611.00	41982.19
612.00	42280.22
613.00	42658.60
614.00	42923.08
615.00	43068.98
616.00	42988.62
617.00	43083.80
618.00	43251.54
619.00	43297.57
620.00	43466.87
621.00	43679.86
622.00	43918.59
623.00	44191.65
624.00	44072.29
625.00	43856.18
626.00	43688.44
627.00	43938.88
628.00	44356.27
629.00	44793.95
630.00	44961.69
631.00	44896.94
632.00	44039.52
633.00	43126.71
634.00	41739.55
635.00	39994.29
636.00	38230.31
637.00	37480.56
638.00	38123.43
639.00	39187.59
640.00	40541.20
641.00	41552.31
642.00	42503.35
643.00	43161.04
644.00	44084.77
645.00	44817.36
646.00	45711.44
647.00	46276.29
648.00	46989.38
649.00	47325.63
650.00	47242.15
651.00	46913.70
652.00	46319.98
653.00	46380.06
654.00	46838.80
655.00	47991.90
656.00	49025.64
657.00	49925.97
658.00	50350.38
659.00	50486.92
660.00	50543.09
661.00	50474.43
662.00	50475.99
663.00	50314.50
664.00	50341.80
665.00	50237.26
666.00	50434.64
667.00	50070.30
668.00	49647.44
669.00	49006.14
670.00	48627.75
671.00	48716.69
672.00	49091.96
673.00	49975.90
674.00	50930.84
675.00	51660.30
676.00	51952.09
677.00	51803.86
678.00	51449.66
679.00	51274.90
680.00	51349.01
681.00	51856.13
682.00	52424.88
683.00	52979.59
684.00	53376.70
685.00	53730.12
686.00	54001.62
687.00	53995.38
688.00	53797.21
689.00	53480.46
690.00	53194.14
691.00	53069.31
692.00	53021.72
693.00	53340.81
694.00	53737.14
695.00	54259.08
696.00	54408.87
697.00	54437.74
698.00	54439.30
699.00	54582.07
700.00	54830.17
701.00	54944.08
702.00	54821.59
703.00	54477.53
704.00	53975.87
705.00	53436.77
706.00	53192.58
707.00	53321.30
708.00	53833.88
709.00	54373.77
710.00	54774.00
711.00	55125.86
712.00	55228.06
713.00	55236.64
714.00	55040.04
715.00	54710.02
716.00	54296.53
717.00	54116.31
718.00	53803.45
719.00	53716.07
720.00	53535.85
721.00	53574.08
722.00	53471.88
723.00	53214.42
724.00	53095.83
725.00	52927.31
726.00	53073.21
727.00	53464.86
728.00	53886.93
729.00	54280.92
730.00	54430.72
731.00	54679.60
732.00	54844.21
733.00	54944.86
734.00	54931.59
735.00	54582.07
736.00	54123.33
737.00	53677.07
738.00	53426.63
739.00	53576.42
740.00	53847.14
741.00	54475.97
742.00	54709.24
743.00	54910.53
744.00	54908.97
745.00	55203.10
746.00	55544.03
747.00	56007.46
748.00	56299.25
749.00	56504.43
750.00	56483.37
751.00	56289.88
752.00	56037.11
753.00	55710.21
754.00	55605.67
755.00	55519.07
756.00	55553.40
757.00	55378.64
758.00	55216.36
759.00	54886.34
760.00	54593.00
761.00	54514.98
762.00	54617.96
763.00	54985.43
764.00	55324.80
765.00	55703.97
766.00	56107.32
767.00	56427.20
768.00	56522.38
769.00	56463.86
770.00	56185.34
771.00	56013.70
772.00	55956.75
773.00	56011.36
774.00	56158.03
775.00	56011.36
776.00	55938.80
777.00	55904.48
778.00	56154.91
779.00	56521.60
780.00	56760.33
781.00	56965.52
782.00	57046.66
783.00	57056.80
784.00	56872.68
785.00	56483.37
786.00	56180.66
787.00	55876.39
788.00	55742.98
789.00	55767.16
790.00	55865.47
791.00	56022.28
792.00	55941.92
793.00	55791.35
794.00	55604.89
795.00	55394.24
796.00	55393.46
797.00	55272.53
798.00	55473.82
799.00	55524.53
800.00	55767.94
801.00	55913.84
802.00	56156.47
803.00	56171.30
804.00	56180.66
805.00	56336.69
806.00	56488.83
807.00	56222.79
808.00	55514.39
809.00	54356.60
810.00	53149.67
811.00	51752.37
812.00	50688.20
813.00	50164.70
814.00	50581.32
815.00	51746.12
816.00	53154.35
817.00	53956.37
818.00	54097.58
819.00	53459.40
820.00	52708.86
821.00	52434.24
822.00	52708.86
823.00	53494.50
824.00	54049.21
825.00	54559.45
826.00	54853.58
827.00	55300.62
828.00	55630.63
829.00	55990.30
830.00	56118.24
831.00	56178.32
832.00	56006.68
833.00	55688.37
834.00	55630.63
835.00	55689.15
836.00	56083.92
837.00	56299.25
838.00	56522.38
839.00	56594.15
840.00	56665.15
841.00	56722.88
842.00	56703.38
843.00	56481.03
844.00	56138.53
845.00	55753.90
846.00	55502.68
847.00	55352.89
848.00	55464.45
849.00	55732.06
850.00	56126.83
851.00	56488.05
852.00	56800.90
853.00	57104.39
854.00	57320.50
855.00	57491.36
856.00	57451.57
857.00	57319.72
858.00	57138.72
859.00	56987.36
860.00	56917.93
861.00	57020.91
862.00	57207.37
863.00	57205.03
864.00	56866.44
865.00	56305.49
866.00	55589.28
867.00	54729.53
868.00	53887.71
869.00	53291.66
870.00	53115.34
871.00	53219.10
872.00	53588.13
873.00	54143.61
874.00	54873.86
875.00	55530.77
876.00	55944.26
877.00	56083.14
878.00	56211.09
879.00	56419.39
880.00	56784.52
881.00	57154.32
882.00	57394.62
883.00	57445.33
884.00	57259.65
885.00	56982.68
886.00	56616.78
887.00	56378.04
888.00	56246.97
889.00	56317.97
890.00	56557.49
891.00	56752.53
892.00	57144.18
893.00	57261.99
894.00	57459.37
895.00	57424.26
896.00	57398.52
897.00	57222.98
898.00	56938.99
899.00	56680.75
900.00	56401.45
901.00	56033.21
902.00	55486.30
903.00	54898.05
904.00	54427.60
905.00	54422.14
906.00	54749.03
907.00	55234.30
908.00	55592.40
909.00	55998.10
910.00	56158.81
911.00	56108.88
912.00	55804.61
913.00	55742.20
914.00	55667.30
915.00	55819.44
916.00	55813.19
917.00	56033.21
918.00	56204.84
919.00	56385.07
920.00	56616.00
921.00	56828.21
922.00	57063.04
923.00	56978.78
924.00	56705.72
925.00	56262.58
926.00	55977.03
927.00	55483.18
928.00	55136.78
929.00	54811.45
930.00	54816.91
931.00	55011.17
932.00	55286.57
933.00	55593.96
934.00	55798.37
935.00	55834.26
936.00	55852.98
937.00	55792.13
938.00	55684.47
939.00	55679.00
940.00	55555.74
941.00	55417.64
942.00	55076.71
943.00	54814.57
944.00	54662.43
945.00	54468.17
946.00	54363.62
947.00	54202.13
948.00	54121.77
949.00	53851.83
950.00	53746.50
951.00	53516.35
952.00	53511.67
953.00	53561.60
954.00	53861.19
955.00	54240.35
956.00	54510.30
957.00	54714.70
958.00	54918.33
959.00	55017.41
960.00	54899.61
961.00	54605.48
962.00	54418.24
963.00	54397.17
964.00	54452.56
965.00	54404.97
966.00	54392.49
967.00	54525.90
968.00	54802.86
969.00	55029.90
970.00	55340.41
971.00	55470.70
972.00	55520.63
973.00	55149.26
974.00	54975.28
975.00	55042.38
976.00	55047.06
977.00	55005.71
978.00	54763.85
979.00	54810.67
980.00	54789.60
981.00	54945.64
982.00	54866.84
983.00	54838.75
984.00	54671.79
985.00	54455.68
986.00	54228.65
987.00	54118.65
988.00	54426.04
989.00	54453.34
990.00	54499.37
991.00	54081.98
992.00	53863.53
993.00	53478.12
994.00	53524.15
995.00	53712.95
996.00	54130.35
997.00	54476.75
998.00	54681.16
999.00	54727.97
1000.00	54705.34
1001.00	54717.82
1002.00	54625.76
1003.00	54443.20
1004.00	54471.29
1005.00	54396.39
1006.00	54375.33
1007.00	54138.93
1008.00	54229.43
1009.00	54097.58
1010.00	54091.34
1011.00	53800.33
1012.00	53830.76
1013.00	53681.75
1014.00	53800.33
1015.00	53861.19
1016.00	53982.12
1017.00	54165.46
1018.00	54273.90
1019.00	54485.33
1020.00	54235.67
1021.00	54117.87
1022.00	53761.33
1023.00	53537.41
1024.00	53423.51
1025.00	53474.22
1026.00	53707.49
1027.00	53856.51
1028.00	54013.32
1029.00	54003.18
1030.00	54064.81
1031.00	54223.97
1032.00	54447.88
1033.00	54529.80
1034.00	54464.27
1035.00	54362.84
1036.00	54232.55
1037.00	54129.57
1038.00	54130.35
1039.00	54086.66
1040.00	53979.00
1041.00	53797.99
1042.00	53552.24
1043.00	53420.39
1044.00	53414.15
1045.00	53460.18
1046.00	53302.58
1047.00	52901.57
1048.00	52596.52
1049.00	52331.26
1050.00	52491.97
1051.00	52633.19
1052.00	52917.17
1053.00	53000.65
1054.00	53121.58
1055.00	52970.22
1056.00	52858.66
1057.00	52390.55
1058.00	52040.25
1059.00	51495.69
1060.00	51196.88
1061.00	51026.80
1062.00	51061.13
1063.00	51210.92
1064.00	51397.38
1065.00	51438.73
1066.00	51285.82
1067.00	51193.76
1068.00	51269.43
1069.00	51706.33
1070.00	52133.09
1071.00	52595.74
1072.00	52772.84
1073.00	52811.07
1074.00	52545.03
1075.00	52299.27
1076.00	51856.91
1077.00	51496.47
1078.00	51289.72
1079.00	51252.27
1080.00	51357.60
1081.00	51396.60
1082.00	51666.55
1083.00	51788.25
1084.00	52039.47
1085.00	52090.96
1086.00	52167.42
1087.00	52109.69
1088.00	51878.75
1089.00	51772.65
1090.00	51328.73
1091.00	51155.53
1092.00	51075.95
1093.00	51150.85
1094.00	51419.23
1095.00	51408.31
1096.00	51427.03
1097.00	51327.95
1098.00	51165.67
1099.00	50943.32
1100.00	50476.77
1101.00	50181.09
1102.00	49966.54
1103.00	49752.77
1104.00	49769.15
1105.00	49897.88
1106.00	50196.69
1107.00	50255.20
1108.00	50436.20
1109.00	50642.95
1110.00	50935.52
1111.00	50965.17
1112.00	50945.66
1113.00	50831.75
1114.00	50675.72
1115.00	50479.89
1116.00	50062.50
1117.00	49727.02
1118.00	49324.45
1119.00	49026.42
1120.00	48926.56
1121.00	48832.94
1122.00	49083.37
1123.00	49132.53
1124.00	49337.71
1125.00	49213.66
1126.00	49111.46
1127.00	48912.52
1128.00	48845.42
1129.00	48622.29
1130.00	48425.68
1131.00	48019.21
1132.00	47788.28
1133.00	47370.88
1134.00	47133.71
1135.00	46987.03
1136.00	47272.58
1137.00	47487.13
1138.00	47755.51
1139.00	47966.94
1140.00	48297.73
1141.00	48669.88
1142.00	48855.56
1143.00	48947.62
1144.00	48869.61
1145.00	48837.62
1146.00	48829.82
1147.00	48672.22
1148.00	48499.80
1149.00	48360.93
1150.00	48304.76
1151.00	48300.86
1152.00	48311.00
1153.00	48390.58
1154.00	48168.22
1155.00	47889.70
1156.00	47547.98
1157.00	47386.49
1158.00	47140.73
1159.00	46908.24
1160.00	46681.98
1161.00	46576.66
1162.00	46482.26
1163.00	46390.98
1164.00	46231.82
1165.00	46232.60
1166.00	46231.04
1167.00	46466.66
1168.00	46631.27
1169.00	46895.75
1170.00	46820.86
1171.00	46763.90
1172.00	46626.59
1173.00	46525.95
1174.00	46448.71
1175.00	46228.70
1176.00	46066.42
1177.00	45639.67
1178.00	45232.41
1179.00	44812.68
1180.00	44805.66
1181.00	44896.16
1182.00	45216.03
1183.00	45347.10
1184.00	45557.75
1185.00	45679.46
1186.00	45724.71
1187.00	45864.36
1188.00	45822.23
1189.00	46003.23
1190.00	46106.21
1191.00	46367.57
1192.00	46039.90
1193.00	45841.73
1194.00	45571.79
1195.00	45873.72
1196.00	45755.13
1197.00	45927.55
1198.00	45737.97
1199.00	45995.43
1200.00	45879.96
1201.00	46277.07
1202.00	46154.58
1203.00	46493.96
1204.00	46363.67
1205.00	46548.57
1206.00	46356.65
1207.00	46521.27
1208.00	46596.17
1209.00	46675.74
1210.00	46372.25
1211.00	46167.07
1212.00	46099.19
1213.00	46177.21
1214.00	46111.67
1215.00	45895.56
1216.00	45815.99
1217.00	45904.93
1218.00	45956.42
1219.00	45767.62
1220.00	45628.74
1221.00	45294.05
1222.00	45087.30
1223.00	44776.79
1224.00	44499.05
1225.00	44223.64
1226.00	43913.91
1227.00	43975.55
1228.00	44036.40
1229.00	44154.21
1230.00	44157.33
1231.00	44299.32
1232.00	44421.81
1233.00	44664.44
1234.00	44629.34
1235.00	44605.15
1236.00	44411.67
1237.00	44264.21
1238.00	44214.28
1239.00	44041.86
1240.00	43792.20
1241.00	43327.22
1242.00	42706.19
1243.00	41809.77
1244.00	40509.21
1245.00	39203.97
1246.00	38184.28
1247.00	37708.37
1248.00	37592.12
1249.00	37789.51
1250.00	38182.72
1251.00	38597.77
1252.00	39267.17
1253.00	40060.61
1254.00	41043.63
1255.00	41763.74
1256.00	42077.37
1257.00	42339.51
1258.00	42339.51
1259.00	42269.29
1260.00	42006.37
1261.00	41866.72
1262.00	41715.37
1263.00	41709.91
1264.00	41606.14
1265.00	41569.47
1266.00	41389.25
1267.00	41429.82
1268.00	41654.51
1269.00	41892.47
1270.00	41822.25
1271.00	41727.85
1272.00	41610.82
1273.00	41692.74
1274.00	41780.12
1275.00	41794.95
1276.00	41682.60
1277.00	41446.99
1278.00	41126.33
1279.00	40961.72
1280.00	40641.84
1281.00	40491.27
1282.00	40176.86
1283.00	40264.24
1284.00	40297.78
1285.00	40641.84
1286.00	40645.74
1287.00	40766.67
1288.00	40715.96
1289.00	40943.77
1290.00	41097.47
1291.00	41242.58
1292.00	41344.78
1293.00	41309.68
1294.00	41409.54
1295.00	41202.79
1296.00	41137.26
1297.00	41001.50
1298.00	40800.22
1299.00	40684.75
1300.00	40525.60
1301.00	40625.46
1302.00	40500.63
1303.00	40334.45
1304.00	40321.19
1305.00	40467.86
1306.00	40523.26
1307.00	40398.43
1308.00	40200.26
1309.00	40222.89
1310.00	40372.68
1311.00	40563.82
1312.00	40641.84
1313.00	40487.37
1314.00	40388.28
1315.00	40322.75
1316.00	40346.15
1317.00	40298.56
1318.00	40276.72
1319.00	40148.77
1320.00	39935.78
1321.00	39733.71
1322.00	39691.58
1323.00	39726.69
1324.00	39513.70
1325.00	39495.76
1326.00	39388.88
1327.00	39429.44
1328.00	39103.33
1329.00	39079.92
1330.00	39045.60
1331.00	39378.73
1332.00	39438.81
1333.00	39647.89
1334.00	39676.76
1335.00	39796.91
1336.00	39984.15
1337.00	40123.02
1338.00	40332.89
1339.00	40250.19
1340.00	40173.74
1341.00	40055.15
1342.00	39841.38
1343.00	39945.14
1344.00	39788.33
1345.00	39784.43
1346.00	39414.62
1347.00	39365.47
1348.00	39286.67
1349.00	39360.01
1350.00	39207.09
1351.00	39189.15
1352.00	38944.95
1353.00	39089.29
1354.00	39083.05
1355.00	39077.58
1356.00	38792.04
1357.00	38814.66
1358.00	38803.74
1359.00	38753.03
1360.00	38664.09
1361.00	38841.97
1362.00	38966.80
1363.00	38935.59
1364.00	38716.36
1365.00	38572.81
1366.00	38311.45
1367.00	38034.49
1368.00	37946.33
1369.00	37899.51
1370.00	37995.48
1371.00	37929.16
1372.00	37730.22
1373.00	37669.36
1374.00	37492.26
1375.00	37521.91
1376.00	37411.90
1377.00	37418.14
1378.00	37308.14
1379.00	37202.82
1380.00	36984.37
1381.00	36878.26
1382.00	36708.96
1383.00	36793.22
1384.00	36744.85
1385.00	36935.21
1386.00	36872.80
1387.00	36929.75
1388.00	36986.71
1389.00	37035.86
1390.00	37149.76
1391.00	36924.29
1392.00	36779.18
1393.00	36403.91
1394.00	36204.97
1395.00	36141.77
1396.00	36421.08
1397.00	36465.55
1398.00	36500.65
1399.00	36312.63
1400.00	36308.73
1401.00	36008.36
1402.00	35633.10
1403.00	35129.88
1404.00	34846.68
1405.00	34809.23
1406.00	35038.60
1407.00	35285.92
1408.00	35477.06
1409.00	35564.44
1410.00	35600.33
1411.00	35707.99
1412.00	35715.01
1413.00	35608.13
1414.00	35420.11
1415.00	35231.30
1416.00	35115.84
1417.00	34778.80
1418.00	34329.42
1419.00	33919.82
1420.00	33694.35
1421.00	33559.38
1422.00	33670.95
1423.00	33677.97
1424.00	33739.60
1425.00	33750.52
1426.00	33844.15
1427.00	34046.21
1428.00	34000.96
1429.00	34220.19
1430.00	34373.89
1431.00	34717.17
1432.00	34661.77
1433.00	34682.06
1434.00	34613.40
1435.00	34662.55
1436.00	34644.61
1437.00	34399.63
1438.00	34104.73
1439.00	33890.96
1440.00	33964.29
1441.00	34185.08
1442.00	34291.19
1443.00	34272.46
1444.00	34107.07
1445.00	34011.88
1446.00	34071.18
1447.00	34183.52
1448.00	34172.60
1449.00	34128.91
1450.00	34117.21
1451.00	34186.64
1452.00	34075.08
1453.00	33920.60
1454.00	33645.20
1455.00	33292.56
1456.00	33012.48
1457.00	32875.16
1458.00	33103.76
1459.00	33106.88
1460.00	33122.48
1461.00	33008.58
1462.00	33007.80
1463.00	32654.37
1464.00	32513.94
1465.00	32311.88
1466.00	32367.27
1467.00	32131.65
1468.00	32076.26
1469.00	32210.45
1470.00	32310.32
1471.00	32240.10
1472.00	31920.23
1473.00	31647.16
1474.00	31437.30
1475.00	31410.77
1476.00	31438.08
1477.00	31449.78
1478.00	31256.29
1479.00	31077.63
1480.00	30859.18
1481.00	30850.60
1482.00	30701.59
1483.00	30742.16
1484.00	30735.13
1485.00	30799.89
1486.00	30979.33
1487.00	31034.72
1488.00	31191.54
1489.00	31076.07
1490.00	31006.64
1491.00	30872.45
1492.00	30795.99
1493.00	30469.87
1494.00	30046.24
1495.00	29338.62
1496.00	28712.13
1497.00	28193.31
1498.00	28075.51
1499.00	28161.33
1500.00	28456.23
1501.00	28783.13
1502.00	29120.95
1503.00	29221.59
1504.00	29220.81
1505.00	29220.81
1506.00	29095.20
1507.00	28927.46
1508.00	28703.55
1509.00	28753.48
1510.00	28602.91
1511.00	28451.55
1512.00	28435.17
1513.00	28578.72
1514.00	28799.51
1515.00	28882.21
1516.00	28864.27
1517.00	28804.19
1518.00	28745.68
1519.00	28692.63
1520.00	28506.16
1521.00	28165.23
1522.00	27986.57
1523.00	28082.53
1524.00	28131.68
1525.00	28435.95
1526.00	28559.22
1527.00	28849.44
1528.00	28996.12
1529.00	28997.68
1530.00	28987.53
1531.00	28843.20
1532.00	28929.02
1533.00	28811.21
1534.00	28536.59
1535.00	28308.00
1536.00	28112.17
1537.00	28251.05
1538.00	28244.02
1539.00	28353.25
1540.00	28333.75
1541.00	28467.94
1542.00	28532.69
1543.00	28639.58
1544.00	28666.88
1545.00	28819.80
1546.00	28875.19
1547.00	28749.58
1548.00	28522.55
1549.00	28260.41
1550.00	28128.56
1551.00	28106.71
1552.00	27944.44
1553.00	28022.45
1554.00	28020.11
1555.00	28258.85
1556.00	28278.35
1557.00	28330.62
1558.00	28264.31
1559.00	28420.34
1560.00	28424.25
1561.00	28528.79
1562.00	28506.16
1563.00	28418.00
1564.00	28339.21
1565.00	28245.59
1566.00	28213.60
1567.00	28241.68
1568.00	28076.29
1569.00	28021.67
1570.00	27903.09
1571.00	27968.62
1572.00	27998.27
1573.00	27826.63
1574.00	27667.47
1575.00	27419.38
1576.00	27329.66
1577.00	27192.34
1578.00	27165.04
1579.00	27155.68
1580.00	27115.89
1581.00	27143.97
1582.00	27123.69
1583.00	26928.64
1584.00	26845.16
1585.00	26700.05
1586.00	26599.41
1587.00	26369.26
1588.00	26429.33
1589.00	26622.03
1590.00	26678.21
1591.00	26560.40
1592.00	26480.82
1593.00	26536.21
1594.00	26568.98
1595.00	26646.22
1596.00	26685.23
1597.00	26611.11
1598.00	26551.04
1599.00	26380.96
1600.00	26458.20
1601.00	26449.61
1602.00	26411.39
1603.00	26235.06
1604.00	26076.69
1605.00	26132.86
1606.00	26141.44
1607.00	26216.34
1608.00	26157.05
1609.00	26218.68
1610.00	26058.74
1611.00	25922.21
1612.00	25641.35
1613.00	25603.90
1614.00	25587.52
1615.00	25653.05
1616.00	25597.66
1617.00	25631.21
1618.00	25564.11
1619.00	25453.33
1620.00	25302.75
1621.00	25166.22
1622.00	25102.25
1623.00	24982.88
1624.00	25012.52
1625.00	24943.87
1626.00	24913.44
1627.00	24729.32
1628.00	24624.00
1629.00	24556.12
1630.00	24607.61
1631.00	24633.36
1632.00	24495.27
1633.00	24272.14
1634.00	24168.37
1635.00	24194.90
1636.00	24326.75
1637.00	24374.34
1638.00	24235.47
1639.00	23992.83
1640.00	23753.32
1641.00	23543.45
1642.00	23342.16
1643.00	23069.10
1644.00	22991.08
1645.00	23049.60
1646.00	23275.07
1647.00	23555.93
1648.00	24000.63
1649.00	24374.34
1650.00	24630.24
1651.00	24499.95
1652.00	24455.48
1653.00	24349.37
1654.00	24246.39
1655.00	23998.29
1656.00	23716.65
1657.00	23581.68
1658.00	23385.07
1659.00	23428.76
1660.00	23539.55
1661.00	23646.43
1662.00	23662.82
1663.00	23633.95
1664.00	23753.32
1665.00	23960.06
1666.00	24002.19
1667.00	24063.05
1668.00	23942.90
1669.00	23932.76
1670.00	23864.10
1671.00	23793.89
1672.00	23699.48
1673.00	23687.78
1674.00	23685.44
1675.00	23615.23
1676.00	23418.62
1677.00	23136.20
1678.00	22983.28
1679.00	22884.98
1680.00	22811.64
1681.00	22720.36
1682.00	22524.54
1683.00	22412.19
1684.00	22065.01
1685.00	21580.52
1686.00	20798.78
1687.00	20054.49
1688.00	19173.67
1689.00	18491.01
1690.00	18125.11
1691.00	18295.97
1692.00	18760.95
1693.00	19304.74
1694.00	19958.53
1695.00	20528.06
1696.00	20968.86
1697.00	21348.81
1698.00	21671.80
1699.00	21919.90
1700.00	22046.29
1701.00	22219.49
1702.00	22242.11
1703.00	22299.84
1704.00	22281.12
1705.00	22480.85
1706.00	22484.75
1707.00	22404.39
1708.00	22290.48
1709.00	22131.33
1710.00	22108.70
1711.00	22098.56
1712.00	22108.70
1713.00	22022.88
1714.00	21993.23
1715.00	22047.85
1716.00	22309.99
1717.00	22304.53
1718.00	22435.60
1719.00	22248.35
1720.00	22350.56
1721.00	22160.97
1722.00	22146.15
1723.00	21879.33
1724.00	21976.85
1725.00	22061.89
1726.00	22245.23
1727.00	22217.15
1728.00	22053.31
1729.00	22042.39
1730.00	22029.90
1731.00	22121.18
1732.00	22035.36
1733.00	21877.77
1734.00	21749.82
1735.00	21727.19
1736.00	21616.41
1737.00	21497.82
1738.00	21281.71
1739.00	21247.38
1740.00	21145.96
1741.00	21128.02
1742.00	21166.24
1743.00	21213.06
1744.00	21200.57
1745.00	21126.46
1746.00	20979.00
1747.00	20881.48
1748.00	20845.59
1749.00	20908.01
1750.00	20936.09
1751.00	20902.54
1752.00	20898.64
1753.00	20960.28
1754.00	20798.00
1755.00	20776.16
1756.00	20627.14
1757.00	20681.75
1758.00	20539.76
1759.00	20425.86
1760.00	20314.29
1761.00	20235.49
1762.00	20269.04
1763.00	20269.82
1764.00	20222.23
1765.00	20170.74
1766.00	20157.47
1767.00	20129.39
1768.00	20064.63
1769.00	19972.57
1770.00	19900.01
1771.00	19829.02
1772.00	19844.62
1773.00	19822.78
1774.00	19789.23
1775.00	19676.88
1776.00	19719.01
1777.00	19730.72
1778.00	19800.93
1779.00	19763.48
1780.00	19644.12
1781.00	19488.08
1782.00	19418.64
1783.00	19353.11
1784.00	19379.64
1785.00	19297.72
1786.00	19306.30
1787.00	19243.88
1788.00	19208.00
1789.00	19191.61
1790.00	18995.01
1791.00	19005.15
1792.00	18903.73
1793.00	18910.75
1794.00	18727.41
1795.00	18625.20
1796.00	18579.17
1797.00	18508.96
1798.00	18429.38
1799.00	18262.42
1800.00	18241.36
1801.00	18189.08
1802.00	18292.07
1803.00	18301.43
1804.00	18327.95
1805.00	18346.68
1806.00	18315.47
1807.00	18307.67
1808.00	18203.13
1809.00	18142.27
1810.00	18060.35
1811.00	18068.94
1812.00	17969.07
1813.00	17930.84
1814.00	17816.16
1815.00	17833.32
1816.00	17756.86
1817.00	17701.47
1818.00	17661.68
1819.00	17584.44
1820.00	17430.75
1821.00	17322.30
1822.00	17321.52
1823.00	17413.59
1824.00	17433.87
1825.00	17396.42
1826.00	17357.41
1827.00	17395.64
1828.00	17387.06
1829.00	17386.28
1830.00	17083.57
1831.00	17055.48
1832.00	16911.15
1833.00	16982.15
1834.00	16889.31
1835.00	16864.34
1836.00	16737.95
1837.00	16668.52
1838.00	16680.22
1839.00	16712.21
1840.00	16751.21
1841.00	16635.75
1842.00	16639.65
1843.00	16378.29
1844.00	16277.65
1845.00	16102.11
1846.00	16086.50
1847.00	16018.63
1848.00	16064.66
1849.00	16024.87
1850.00	15999.90
1851.00	15907.06
1852.00	15942.95
1853.00	15854.01
1854.00	15791.59
1855.00	15657.40
1856.00	15652.72
1857.00	15617.61
1858.00	15644.14
1859.00	15591.09
1860.00	15523.21
1861.00	15385.90
1862.00	15263.41
1863.00	15200.22
1864.00	15191.64
1865.00	15133.90
1866.00	15088.65
1867.00	15095.68
1868.00	15208.02
1869.00	15120.64
1870.00	15030.92
1871.00	14853.82
1872.00	14824.17
1873.00	14768.78
1874.00	14797.65
1875.00	14807.01
1876.00	14818.71
1877.00	14679.06
1878.00	14622.89
1879.00	14487.14
1880.00	14485.58
1881.00	14331.88
1882.00	14274.93
1883.00	14220.31
1884.00	14207.83
1885.00	14067.40
1886.00	13867.67
1887.00	13706.96
1888.00	13513.47
1889.00	13474.46
1890.00	13509.57
1891.00	13596.95
1892.00	13595.39
1893.00	13525.18
1894.00	13584.47
1895.00	13571.21
1896.00	13554.82
1897.00	13444.82
1898.00	13412.83
1899.00	13350.42
1900.00	13343.39
1901.00	13238.07
1902.00	13081.25
1903.00	12841.74
1904.00	12356.47
1905.00	11768.99
1906.00	10863.99
1907.00	10012.03
1908.00	9225.61
1909.00	8652.18
1910.00	8344.01
1911.00	8150.53
1912.00	8192.66
1913.00	8382.24
1914.00	8762.19
1915.00	9196.74
1916.00	9605.56
1917.00	9937.91
1918.00	10140.76
1919.00	10227.36
1920.00	10141.54
1921.00	10017.49
1922.00	9817.77
1923.00	9671.87
1924.00	9600.88
1925.00	9533.00
1926.00	9518.18
1927.00	9503.36
1928.00	9604.78
1929.00	9658.61
1930.00	9662.51
1931.00	9727.27
1932.00	9844.29
1933.00	9990.19
1934.00	10048.70
1935.00	10076.01
1936.00	10173.53
1937.00	10271.83
1938.00	10313.96
1939.00	10346.73
1940.00	10259.35
1941.00	10299.14
1942.00	10242.18
1943.00	10285.09
1944.00	10300.70
1945.00	10278.85
1946.00	10294.46
1947.00	10221.90
1948.00	10207.08
1949.00	10148.56
1950.00	10080.69
1951.00	10031.54
1952.00	10011.25
1953.00	10051.04
1954.00	10054.16
1955.00	9966.78
1956.00	9849.75
1957.00	9753.01
1958.00	9671.09
1959.00	9567.33
1960.00	9500.23
1961.00	9458.10
1962.00	9480.73
1963.00	9438.60
1964.00	9403.49
1965.00	9319.23
1966.00	9320.79
1967.00	9368.38
1968.00	9380.09
1969.00	9327.82
1970.00	9265.40
1971.00	9229.51
1972.00	9178.80
1973.00	9120.29
1974.00	9064.89
1975.00	9143.69
1976.00	9197.53
1977.00	9206.89
1978.00	9192.84
1979.00	9243.56
1980.00	9309.87
1981.00	9259.94
1982.00	9216.25
1983.00	9221.71
1984.00	9231.07
1985.00	9239.65
1986.00	9187.38
1987.00	9095.32
1988.00	8924.46
1989.00	8789.49
1990.00	8754.38
1991.00	8721.62
1992.00	8697.43
1993.00	8607.71
1994.00	8530.47
1995.00	8365.85
1996.00	8251.17
1997.00	8152.09
1998.00	8152.09
1999.00	8131.80
2000.00	8099.03
2001.00	8081.09
2002.00	8099.81
2003.00	8145.84
2004.00	8134.92
2005.00	8079.53
2006.00	7985.13
2007.00	7889.17
2008.00	7822.85
2009.00	7736.25
2010.00	7727.67
2011.00	7706.60
2012.00	7700.36
2013.00	7708.16
2014.00	7686.32
2015.00	7680.86
2016.00	7612.20
2017.00	7586.46
2018.00	7579.43
2019.00	7498.30
2020.00	7414.82
2021.00	7346.16
2022.00	7360.20
2023.00	7326.66
2024.00	7262.68
2025.00	7191.69
2026.00	7187.79
2027.00	7155.02
2028.00	7133.95
2029.00	7195.59
2030.00	7280.63
2031.00	7291.55
2032.00	7190.13
2033.00	7171.40
2034.00	7199.49
2035.00	7122.25
2036.00	7000.54
2037.00	6995.08
2038.00	7023.17
2039.00	7079.34
2040.00	7010.68
2041.00	6963.09
2042.00	6891.32
2043.00	6905.36
2044.00	6875.71
2045.00	6842.95
2046.00	6743.08
2047.00	6707.98
>>>>>End Processed Spectral Data<<<<<
