SpectraSuite Data File
++++++++++++++++++++++++++++++++++++
Date: Thu Nov 16 13:32:49 EST 2017
User: cheriyan
Dark Spectrum Present: No
Reference Spectrum Present: No
Number of Sampled Component Spectra: 1
Spectrometers: USB2+H05261
Integration Time (usec): 90000 (USB2+H05261)
Spectra Averaged: 1 (USB2+H05261)
Boxcar Smoothing: 1 (USB2+H05261)
Correct for Electrical Dark: No (USB2+H05261)
Strobe/Lamp Enabled: No (USB2+H05261)
Correct for Detector Non-linearity: No (USB2+H05261)
Correct for Stray Light: No (USB2+H05261)
Number of Pixels in Processed Spectrum: 2048
>>>>>Begin Processed Spectral Data<<<<<
0.00	416.62
1.00	416.62
2.00	358.88
3.00	288.67
4.00	238.73
5.00	241.08
6.00	262.14
7.00	259.80
8.00	276.18
9.00	276.96
10.00	279.30
11.00	262.14
12.00	246.54
13.00	234.83
14.00	219.23
15.00	250.44
16.00	257.46
17.00	279.30
18.00	275.40
19.00	291.79
20.00	314.41
21.00	305.83
22.00	308.17
23.00	733.37
24.00	2385.79
25.00	4173.96
26.00	5587.64
27.00	5742.11
28.00	5575.94
29.00	5403.52
30.00	5188.19
31.00	5174.14
32.00	5185.07
33.00	5233.44
34.00	5195.21
35.00	5048.54
36.00	4929.95
37.00	4777.81
38.00	4709.16
39.00	4763.77
40.00	4912.00
41.00	4946.33
42.00	4855.83
43.00	4787.96
44.00	4925.27
45.00	5213.15
46.00	5562.67
47.00	5704.67
48.00	5817.01
49.00	5801.41
50.00	5870.84
51.00	5854.46
52.00	5927.02
53.00	6008.16
54.00	6101.78
55.00	6256.25
56.00	6445.84
57.00	6796.92
58.00	7058.28
59.00	7342.26
60.00	7448.36
61.00	7442.90
62.00	7320.42
63.00	7074.66
64.00	6846.07
65.00	6536.34
66.00	6289.02
67.00	6109.58
68.00	6033.12
69.00	6074.47
70.00	6232.85
71.00	6452.08
72.00	6750.89
73.00	6938.91
74.00	7077.00
75.00	6925.65
76.00	6790.67
77.00	6532.44
78.00	6321.79
79.00	5953.54
80.00	5633.67
81.00	5318.48
82.00	5190.53
83.00	5028.25
84.00	4875.34
85.00	4712.28
86.00	4628.80
87.00	4633.48
88.00	4635.82
89.00	4728.66
90.00	4912.78
91.00	5248.26
92.00	5664.88
93.00	6122.84
94.00	6459.10
95.00	6656.48
96.00	6675.99
97.00	6599.53
98.00	6438.81
99.00	6284.34
100.00	6151.71
101.00	6188.38
102.00	6360.02
103.00	6543.36
104.00	6602.65
105.00	6628.40
106.00	6638.54
107.00	6657.26
108.00	6648.68
109.00	6630.74
110.00	6665.85
111.00	6653.36
112.00	6699.39
113.00	6642.44
114.00	6687.69
115.00	6796.92
116.00	7092.60
117.00	7501.42
118.00	7847.82
119.00	8227.76
120.00	8391.60
121.00	8555.44
122.00	8589.77
123.00	8603.81
124.00	8721.62
125.00	8866.73
126.00	9124.19
127.00	9392.57
128.00	9639.11
129.00	9689.04
130.00	9488.53
131.00	9146.81
132.00	8729.42
133.00	8304.22
134.00	7721.43
135.00	7059.84
136.00	6212.56
137.00	5493.24
138.00	4881.58
139.00	4725.54
140.00	4876.90
141.00	5497.14
142.00	6202.42
143.00	7014.59
144.00	7693.34
145.00	8464.94
146.00	9071.92
147.00	9667.19
148.00	9948.06
149.00	10118.14
150.00	10065.08
151.00	9789.68
152.00	9285.69
153.00	8588.21
154.00	7759.66
155.00	6907.70
156.00	6182.92
157.00	5924.68
158.00	6218.80
159.00	6960.75
160.00	8066.27
161.00	9270.86
162.00	10509.79
163.00	11344.58
164.00	11921.91
165.00	12342.43
166.00	12755.92
167.00	13139.77
168.00	13390.20
169.00	13630.50
170.00	13784.20
171.00	13918.39
172.00	13924.63
173.00	13982.36
174.00	14097.83
175.00	14168.04
176.00	14269.47
177.00	14391.17
178.00	14713.39
179.00	14977.87
180.00	15193.20
181.00	15428.03
182.00	15593.43
183.00	15652.72
184.00	15683.15
185.00	15714.36
186.00	15629.32
187.00	15540.38
188.00	15343.77
189.00	15262.63
190.00	15156.53
191.00	15324.27
192.00	15566.12
193.00	15868.83
194.00	15905.50
195.00	15688.61
196.00	15328.95
197.00	15186.96
198.00	15310.22
199.00	15462.36
200.00	15602.01
201.00	15626.98
202.00	15665.99
203.00	15545.84
204.00	15371.86
205.00	15186.18
206.00	14926.38
207.00	14963.82
208.00	15158.87
209.00	15504.49
210.00	15625.42
211.00	15528.67
212.00	15415.55
213.00	15560.66
214.00	15907.06
215.00	16269.84
216.00	16545.25
217.00	16851.08
218.00	17217.76
219.00	17615.65
220.00	17707.71
221.00	17602.39
222.00	17180.31
223.00	16596.74
224.00	16059.20
225.00	15463.92
226.00	15155.75
227.00	15290.72
228.00	15764.29
229.00	16416.52
230.00	16944.70
231.00	17507.21
232.00	18071.28
233.00	18377.89
234.00	18551.87
235.00	18664.21
236.00	18776.56
237.00	18859.26
238.00	18672.79
239.00	18535.48
240.00	18400.51
241.00	18354.48
242.00	18317.03
243.00	18308.45
244.00	18688.40
245.00	18895.14
246.00	19176.79
247.00	19083.95
248.00	19090.19
249.00	18980.96
250.00	19110.47
251.00	19268.07
252.00	19411.62
253.00	19313.32
254.00	19445.95
255.00	19520.07
256.00	19893.77
257.00	20258.12
258.00	20670.83
259.00	20866.66
260.00	20767.57
261.00	20499.19
262.00	20130.95
263.00	19768.94
264.00	19565.32
265.00	19431.13
266.00	19555.18
267.00	19707.31
268.00	19911.72
269.00	19886.75
270.00	19935.90
271.00	20049.81
272.00	20472.67
273.00	20733.25
274.00	20725.44
275.00	20397.77
276.00	20141.09
277.00	19843.84
278.00	19713.55
279.00	19910.16
280.00	20520.26
281.00	21113.97
282.00	21671.80
283.00	21855.92
284.00	21994.01
285.00	21891.03
286.00	21866.06
287.00	21661.66
288.00	21284.05
289.00	20829.21
290.00	20223.01
291.00	19773.63
292.00	19552.84
293.00	19710.43
294.00	20159.03
295.00	20482.03
296.00	20771.47
297.00	20658.35
298.00	20801.90
299.00	20866.66
300.00	21096.03
301.00	20815.16
302.00	20724.66
303.00	20497.63
304.00	20512.45
305.00	20412.59
306.00	20244.07
307.00	20182.44
308.00	20038.89
309.00	20047.47
310.00	20153.57
311.00	20543.66
312.00	20745.73
313.00	20652.89
314.00	19929.66
315.00	19313.32
316.00	18988.77
317.00	19080.05
318.00	19424.89
319.00	19729.94
320.00	20137.97
321.00	20225.35
322.00	19999.10
323.00	19553.62
324.00	19301.62
325.00	19187.71
326.00	19184.59
327.00	18931.03
328.00	18510.52
329.00	17763.11
330.00	16974.35
331.00	16060.76
332.00	15323.49
333.00	14850.70
334.00	14764.88
335.00	15121.42
336.00	15720.60
337.00	16861.22
338.00	18505.84
339.00	20440.68
340.00	21980.75
341.00	22543.26
342.00	22136.79
343.00	21498.60
344.00	20957.16
345.00	21081.21
346.00	21599.24
347.00	22211.68
348.00	22584.61
349.00	22359.14
350.00	21683.50
351.00	20751.97
352.00	20085.70
353.00	20024.84
354.00	20572.53
355.00	21271.57
356.00	21958.91
357.00	22345.87
358.00	22430.91
359.00	22569.79
360.00	22658.73
361.00	23275.85
362.00	23702.61
363.00	24279.16
364.00	24552.22
365.00	24611.51
366.00	24520.23
367.00	24294.76
368.00	24140.29
369.00	23648.77
370.00	23307.83
371.00	23019.95
372.00	22938.81
373.00	22485.53
374.00	21794.29
375.00	21272.35
376.00	20980.56
377.00	21096.81
378.00	21556.33
379.00	22264.74
380.00	23166.62
381.00	23811.05
382.00	24323.63
383.00	24435.97
384.00	24301.00
385.00	24034.18
386.00	23860.20
387.00	24066.17
388.00	24423.49
389.00	25031.25
390.00	25580.50
391.00	26037.68
392.00	26369.26
393.00	26698.49
394.00	27172.06
395.00	27371.00
396.00	27565.27
397.00	27630.80
398.00	27908.55
399.00	28090.33
400.00	27957.70
401.00	27842.23
402.00	27755.63
403.00	28006.07
404.00	28268.99
405.00	28348.57
406.00	28509.29
407.00	28468.72
408.00	28315.80
409.00	28263.53
410.00	28433.61
411.00	28503.82
412.00	28006.07
413.00	27182.20
414.00	26463.66
415.00	26203.08
416.00	26180.45
417.00	26235.06
418.00	26526.07
419.00	26891.19
420.00	27532.50
421.00	27938.19
422.00	28288.49
423.00	28553.76
424.00	28918.10
425.00	29295.71
426.00	29301.95
427.00	28977.39
428.00	28642.70
429.00	28612.27
430.00	28765.96
431.00	28752.70
432.00	28787.03
433.00	28657.52
434.00	28776.11
435.00	28875.19
436.00	29069.45
437.00	29315.99
438.00	29697.50
439.00	30101.63
440.00	30612.65
441.00	31003.52
442.00	31285.94
443.00	31182.96
444.00	31026.14
445.00	30820.95
446.00	30679.74
447.00	30578.32
448.00	30556.47
449.00	30338.80
450.00	29960.42
451.00	29557.85
452.00	28897.81
453.00	28235.44
454.00	27661.23
455.00	27620.66
456.00	28062.24
457.00	28513.97
458.00	29198.96
459.00	29542.24
460.00	29910.49
461.00	29962.76
462.00	30011.13
463.00	29753.67
464.00	29596.85
465.00	29364.36
466.00	29528.98
467.00	29749.77
468.00	29908.93
469.00	30359.87
470.00	30739.04
471.00	31317.15
472.00	31449.00
473.00	31420.91
474.00	31531.70
475.00	31519.99
476.00	31806.32
477.00	31977.18
478.00	32169.10
479.00	32149.60
480.00	31639.36
481.00	31378.78
482.00	30884.93
483.00	30710.17
484.00	30708.61
485.00	30864.64
486.00	31242.25
487.00	31215.72
488.00	31381.90
489.00	31216.50
490.00	31150.97
491.00	30975.43
492.00	30989.47
493.00	31147.07
494.00	31456.02
495.00	31587.87
496.00	31987.32
497.00	32123.07
498.00	32521.74
499.00	32545.93
500.00	32497.56
501.00	32502.24
502.00	32584.16
503.00	32718.35
504.00	32887.65
505.00	32936.80
506.00	33301.14
507.00	33475.90
508.00	33419.73
509.00	33230.15
510.00	33106.10
511.00	33151.35
512.00	33046.80
513.00	32839.28
514.00	32682.46
515.00	32581.82
516.00	32501.46
517.00	32266.63
518.00	32066.12
519.00	31718.94
520.00	31877.32
521.00	31870.29
522.00	32105.91
523.00	32283.79
524.00	32775.30
525.00	33038.22
526.00	32691.82
527.00	32055.98
528.00	31470.06
529.00	31101.82
530.00	30966.85
531.00	30955.93
532.00	31328.07
533.00	31706.46
534.00	31942.85
535.00	32066.90
536.00	31794.62
537.00	31672.91
538.00	31617.52
539.00	31826.60
540.00	32042.71
541.00	32098.89
542.00	32305.63
543.00	32443.73
544.00	32467.91
545.00	32298.61
546.00	31941.29
547.00	31721.28
548.00	31516.09
549.00	31590.99
550.00	31360.06
551.00	31335.87
552.00	31318.71
553.00	31636.24
554.00	31893.70
555.00	32467.13
556.00	32964.89
557.00	33578.89
558.00	33944.01
559.00	34377.79
560.00	34664.11
561.00	34642.27
562.00	34230.33
563.00	33736.48
564.00	33262.91
565.00	33366.68
566.00	33677.19
567.00	33725.56
568.00	33721.66
569.00	33644.42
570.00	34282.61
571.00	34839.65
572.00	35228.96
573.00	35310.88
574.00	35317.12
575.00	35299.96
576.00	35401.38
577.00	35324.93
578.00	35386.56
579.00	35081.51
580.00	34980.87
581.00	34788.16
582.00	34705.46
583.00	34638.37
584.00	35051.86
585.00	35476.28
586.00	36152.69
587.00	36303.27
588.00	36597.40
589.00	36897.77
590.00	37406.44
591.00	38107.82
592.00	38474.51
593.00	38665.65
594.00	38314.57
595.00	38016.54
596.00	38061.01
597.00	38568.13
598.00	39145.46
599.00	39629.95
600.00	39924.08
601.00	40156.57
602.00	40161.25
603.00	40177.64
604.00	40357.86
605.00	40931.29
606.00	41077.18
607.00	41109.95
608.00	41018.67
609.00	41425.92
610.00	41815.23
611.00	42117.16
612.00	42437.81
613.00	42693.71
614.00	42887.98
615.00	42975.36
616.00	42973.80
617.00	43049.47
618.00	43036.99
619.00	43058.06
620.00	43166.50
621.00	43485.59
622.00	43810.93
623.00	44140.94
624.00	44151.87
625.00	44221.30
626.00	43995.83
627.00	44006.75
628.00	43998.17
629.00	44552.10
630.00	44900.84
631.00	44884.45
632.00	43879.58
633.00	42985.50
634.00	41691.96
635.00	40098.84
636.00	38449.54
637.00	37628.79
638.00	38080.52
639.00	39052.62
640.00	40350.06
641.00	41430.60
642.00	42276.32
643.00	43079.90
644.00	43996.61
645.00	44934.38
646.00	45716.90
647.00	46252.11
648.00	46901.22
649.00	47264.00
650.00	47228.11
651.00	46865.33
652.00	46452.61
653.00	46479.92
654.00	46951.15
655.00	47931.83
656.00	48962.45
657.00	49733.26
658.00	50141.30
659.00	50397.20
660.00	50685.08
661.00	50735.79
662.00	50642.17
663.00	50324.64
664.00	50200.59
665.00	50126.47
666.00	50369.89
667.00	50191.23
668.00	49838.59
669.00	49010.82
670.00	48612.15
671.00	48570.02
672.00	49127.84
673.00	50003.20
674.00	50981.55
675.00	51759.39
676.00	52026.99
677.00	51962.23
678.00	51702.43
679.00	51491.01
680.00	51307.66
681.00	51538.60
682.00	52135.43
683.00	52893.77
684.00	53468.76
685.00	53854.17
686.00	54104.60
687.00	54141.27
688.00	53909.56
689.00	53566.28
690.00	53159.81
691.00	52923.41
692.00	52981.15
693.00	53258.89
694.00	53885.37
695.00	54322.27
696.00	54482.21
697.00	54397.95
698.00	54462.71
699.00	54598.46
700.00	54816.13
701.00	54893.36
702.00	54780.24
703.00	54290.29
704.00	53737.14
705.00	53262.01
706.00	53212.86
707.00	53315.84
708.00	53762.11
709.00	54206.81
710.00	54713.92
711.00	55167.99
712.00	55320.12
713.00	55276.43
714.00	55013.51
715.00	54673.35
716.00	54167.02
717.00	53856.51
718.00	53703.59
719.00	53737.92
720.00	53666.14
721.00	53504.65
722.00	53374.36
723.00	53241.73
724.00	53168.39
725.00	53056.82
726.00	53126.26
727.00	53485.14
728.00	53801.89
729.00	54078.86
730.00	54203.69
731.00	54530.58
732.00	54752.15
733.00	54856.70
734.00	54749.03
735.00	54443.20
736.00	54020.34
737.00	53579.54
738.00	53328.33
739.00	53486.70
740.00	53829.20
741.00	54443.98
742.00	54619.52
743.00	54811.45
744.00	54940.17
745.00	55401.26
746.00	55785.11
747.00	56120.59
748.00	56272.72
749.00	56435.78
750.00	56350.74
751.00	56126.05
752.00	55959.87
753.00	55707.87
754.00	55698.51
755.00	55534.67
756.00	55544.81
757.00	55320.12
758.00	55175.01
759.00	54827.05
760.00	54557.89
761.00	54411.21
762.00	54546.18
763.00	54999.47
764.00	55402.04
765.00	55810.85
766.00	56192.36
767.00	56556.70
768.00	56672.95
769.00	56513.01
770.00	56198.60
771.00	55938.02
772.00	55835.82
773.00	55812.41
774.00	55950.51
775.00	55951.29
776.00	55884.97
777.00	55923.98
778.00	55979.37
779.00	56321.87
780.00	56494.29
781.00	56928.07
782.00	57094.25
783.00	57180.85
784.00	56926.51
785.00	56555.92
786.00	56172.08
787.00	55848.30
788.00	55755.46
789.00	55824.90
790.00	55917.74
791.00	55880.29
792.00	55774.97
793.00	55584.60
794.00	55501.90
795.00	55207.78
796.00	55227.28
797.00	55212.46
798.00	55475.38
799.00	55536.23
800.00	55601.77
801.00	55657.94
802.00	55884.97
803.00	55971.57
804.00	56161.15
805.00	56264.92
806.00	56404.57
807.00	56191.58
808.00	55544.03
809.00	54497.81
810.00	53212.08
811.00	51825.70
812.00	50550.11
813.00	50022.71
814.00	50491.60
815.00	51817.90
816.00	53212.08
817.00	54017.22
818.00	54141.27
819.00	53595.93
820.00	52815.75
821.00	52489.63
822.00	52765.82
823.00	53487.48
824.00	54069.50
825.00	54510.30
826.00	54848.89
827.00	55292.04
828.00	55716.45
829.00	56079.24
830.00	56261.02
831.00	56258.68
832.00	56149.45
833.00	55852.98
834.00	55679.78
835.00	55651.70
836.00	56019.16
837.00	56227.47
838.00	56500.53
839.00	56488.83
840.00	56624.58
841.00	56672.95
842.00	56726.00
843.00	56536.42
844.00	56178.32
845.00	55724.25
846.00	55356.01
847.00	55217.14
848.00	55368.49
849.00	55740.64
850.00	56162.71
851.00	56566.07
852.00	56898.42
853.00	57224.54
854.00	57391.50
855.00	57488.24
856.00	57403.98
857.00	57295.53
858.00	57127.02
859.00	56952.26
860.00	56907.79
861.00	56898.42
862.00	57054.46
863.00	57088.79
864.00	56914.03
865.00	56372.58
866.00	55593.96
867.00	54615.62
868.00	53599.05
869.00	52880.50
870.00	52608.22
871.00	52943.70
872.00	53389.96
873.00	54096.02
874.00	54798.96
875.00	55437.93
876.00	55838.94
877.00	56018.38
878.00	56197.04
879.00	56417.05
880.00	56709.62
881.00	57094.25
882.00	57395.40
883.00	57508.52
884.00	57378.23
885.00	57033.39
886.00	56607.42
887.00	56219.67
888.00	56109.66
889.00	56244.63
890.00	56429.54
891.00	56700.26
892.00	57016.23
893.00	57251.84
894.00	57352.49
895.00	57219.08
896.00	57092.69
897.00	56960.06
898.00	56839.13
899.00	56679.97
900.00	56367.90
901.00	55952.85
902.00	55446.51
903.00	54926.91
904.00	54541.50
905.00	54387.81
906.00	54513.42
907.00	54848.89
908.00	55337.29
909.00	55851.42
910.00	56040.23
911.00	56015.26
912.00	55794.47
913.00	55683.69
914.00	55527.65
915.00	55572.90
916.00	55640.00
917.00	55970.01
918.00	56259.46
919.00	56531.74
920.00	56731.46
921.00	56964.74
922.00	57176.17
923.00	57024.81
924.00	56640.18
925.00	56109.66
926.00	55845.96
927.00	55391.90
928.00	55010.39
929.00	54649.17
930.00	54588.31
931.00	54884.00
932.00	55266.29
933.00	55654.82
934.00	55763.26
935.00	55736.74
936.00	55754.68
937.00	55809.29
938.00	55851.42
939.00	55812.41
940.00	55637.65
941.00	55462.11
942.00	55214.80
943.00	54986.99
944.00	54632.00
945.00	54476.75
946.00	54376.11
947.00	54266.10
948.00	54087.44
949.00	53801.11
950.00	53756.64
951.00	53577.20
952.00	53571.74
953.00	53549.12
954.00	53772.25
955.00	54065.59
956.00	54386.25
957.00	54597.68
958.00	54755.27
959.00	54809.89
960.00	54643.71
961.00	54394.05
962.00	54300.43
963.00	54306.67
964.00	54456.46
965.00	54293.41
966.00	54295.75
967.00	54393.27
968.00	54649.95
969.00	54822.37
970.00	55109.47
971.00	55394.24
972.00	55569.00
973.00	55295.16
974.00	55088.41
975.00	54996.35
976.00	54973.72
977.00	54904.29
978.00	54739.67
979.00	54684.28
980.00	54562.57
981.00	54705.34
982.00	54667.11
983.00	54622.64
984.00	54521.22
985.00	54478.31
986.00	54639.03
987.00	54600.80
988.00	54698.32
989.00	54458.80
990.00	54337.88
991.00	53844.02
992.00	53598.27
993.00	53355.63
994.00	53519.47
995.00	53778.49
996.00	53969.63
997.00	54307.45
998.00	54462.71
999.00	54686.62
1000.00	54705.34
1001.00	54693.64
1002.00	54553.21
1003.00	54397.17
1004.00	54419.80
1005.00	54404.97
1006.00	54467.39
1007.00	54277.02
1008.00	54308.23
1009.00	54040.63
1010.00	54021.90
1011.00	53801.89
1012.00	53944.67
1013.00	53806.58
1014.00	53839.34
1015.00	53767.57
1016.00	53894.74
1017.00	54081.98
1018.00	54313.69
1019.00	54479.87
1020.00	54341.78
1021.00	54092.90
1022.00	53790.97
1023.00	53555.36
1024.00	53336.91
1025.00	53308.04
1026.00	53484.36
1027.00	53746.50
1028.00	53868.99
1029.00	53799.55
1030.00	53811.26
1031.00	54057.01
1032.00	54238.01
1033.00	54288.73
1034.00	54243.48
1035.00	54296.53
1036.00	54271.56
1037.00	54171.70
1038.00	54048.43
1039.00	53929.06
1040.00	53748.06
1041.00	53619.33
1042.00	53410.24
1043.00	53346.27
1044.00	53248.75
1045.00	53285.42
1046.00	53115.34
1047.00	52791.56
1048.00	52502.12
1049.00	52428.78
1050.00	52616.02
1051.00	52634.75
1052.00	52791.56
1053.00	52794.68
1054.00	52935.90
1055.00	52752.55
1056.00	52599.64
1057.00	52293.81
1058.00	51918.54
1059.00	51381.00
1060.00	51133.68
1061.00	50892.61
1062.00	51043.18
1063.00	51114.96
1064.00	51310.78
1065.00	51356.81
1066.00	51430.93
1067.00	51378.66
1068.00	51446.54
1069.00	51582.29
1070.00	52062.88
1071.00	52509.92
1072.00	52896.11
1073.00	52916.39
1074.00	52786.88
1075.00	52320.34
1076.00	51927.91
1077.00	51564.34
1078.00	51459.80
1079.00	51384.90
1080.00	51374.76
1081.00	51534.70
1082.00	51725.84
1083.00	51921.66
1084.00	52012.16
1085.00	52134.65
1086.00	52223.59
1087.00	52157.28
1088.00	51825.70
1089.00	51551.86
1090.00	51220.28
1091.00	51193.76
1092.00	51171.13
1093.00	51181.27
1094.00	51315.47
1095.00	51387.24
1096.00	51377.10
1097.00	51228.09
1098.00	51082.97
1099.00	50969.07
1100.00	50688.20
1101.00	50177.18
1102.00	49748.87
1103.00	49536.66
1104.00	49586.59
1105.00	49687.23
1106.00	49772.27
1107.00	49862.77
1108.00	50300.45
1109.00	50541.53
1110.00	51019.00
1111.00	50965.95
1112.00	51077.51
1113.00	50790.41
1114.00	50674.94
1115.00	50273.15
1116.00	49923.63
1117.00	49640.42
1118.00	49345.51
1119.00	49107.56
1120.00	48763.50
1121.00	48648.82
1122.00	48771.30
1123.00	48818.89
1124.00	49131.75
1125.00	49091.18
1126.00	49333.03
1127.00	49206.64
1128.00	48994.43
1129.00	48526.33
1130.00	48234.54
1131.00	47790.62
1132.00	47399.75
1133.00	46891.85
1134.00	46716.31
1135.00	46733.48
1136.00	47011.22
1137.00	47365.42
1138.00	47750.83
1139.00	48067.58
1140.00	48499.02
1141.00	48699.53
1142.00	48854.00
1143.00	48787.69
1144.00	48839.96
1145.00	48723.71
1146.00	48731.51
1147.00	48482.64
1148.00	48352.35
1149.00	48244.68
1150.00	48270.43
1151.00	48335.96
1152.00	48218.94
1153.00	48188.51
1154.00	47978.64
1155.00	47787.50
1156.00	47419.25
1157.00	47149.31
1158.00	46892.63
1159.00	46834.12
1160.00	46667.16
1161.00	46483.04
1162.00	46310.62
1163.00	46341.05
1164.00	46244.30
1165.00	46188.13
1166.00	46075.79
1167.00	46264.59
1168.00	46485.38
1169.00	46711.63
1170.00	46836.46
1171.00	46860.65
1172.00	46593.04
1173.00	46362.89
1174.00	46074.23
1175.00	46102.31
1176.00	45860.46
1177.00	45582.71
1178.00	45218.37
1179.00	44888.35
1180.00	44860.27
1181.00	44907.86
1182.00	45113.83
1183.00	45175.46
1184.00	45338.52
1185.00	45483.63
1186.00	45606.12
1187.00	45734.07
1188.00	45857.34
1189.00	45913.51
1190.00	45759.81
1191.00	45911.17
1192.00	45720.80
1193.00	45778.54
1194.00	45712.22
1195.00	45949.40
1196.00	46000.11
1197.00	45874.50
1198.00	45902.59
1199.00	45890.88
1200.00	46105.43
1201.00	46181.89
1202.00	46258.35
1203.00	46225.58
1204.00	46239.62
1205.00	46357.43
1206.00	46380.84
1207.00	46486.94
1208.00	46455.73
1209.00	46427.65
1210.00	46423.75
1211.00	46404.24
1212.00	46467.44
1213.00	46391.76
1214.00	46249.77
1215.00	46124.94
1216.00	45834.71
1217.00	45772.30
1218.00	45656.83
1219.00	45734.85
1220.00	45461.79
1221.00	45184.04
1222.00	44797.07
1223.00	44662.10
1224.00	44322.72
1225.00	44113.64
1226.00	43899.09
1227.00	43825.75
1228.00	43741.49
1229.00	43720.43
1230.00	43885.04
1231.00	44247.83
1232.00	44547.42
1233.00	44685.51
1234.00	44615.29
1235.00	44419.47
1236.00	44432.73
1237.00	44159.67
1238.00	44169.81
1239.00	43906.89
1240.00	43804.69
1241.00	43284.31
1242.00	42541.58
1243.00	41482.87
1244.00	40321.97
1245.00	39190.71
1246.00	38266.20
1247.00	37663.12
1248.00	37408.78
1249.00	37502.40
1250.00	37881.57
1251.00	38484.65
1252.00	39354.55
1253.00	40312.61
1254.00	41068.60
1255.00	41564.01
1256.00	41985.31
1257.00	42302.84
1258.00	42434.69
1259.00	42006.37
1260.00	41678.70
1261.00	41544.51
1262.00	41650.61
1263.00	41631.89
1264.00	41482.87
1265.00	41425.92
1266.00	41388.47
1267.00	41403.30
1268.00	41482.87
1269.00	41678.70
1270.00	41656.07
1271.00	41561.67
1272.00	41504.72
1273.00	41529.69
1274.00	41717.71
1275.00	41693.52
1276.00	41710.69
1277.00	41383.79
1278.00	41012.43
1279.00	40566.16
1280.00	40239.27
1281.00	40146.43
1282.00	40238.49
1283.00	40311.05
1284.00	40377.36
1285.00	40442.12
1286.00	40799.44
1287.00	40911.00
1288.00	41036.61
1289.00	41095.13
1290.00	41250.38
1291.00	41311.24
1292.00	41311.24
1293.00	41298.75
1294.00	41418.12
1295.00	41320.60
1296.00	41252.72
1297.00	40969.52
1298.00	40992.92
1299.00	40807.24
1300.00	40724.54
1301.00	40712.06
1302.00	40495.17
1303.00	40364.10
1304.00	40024.72
1305.00	40105.08
1306.00	40178.42
1307.00	40201.04
1308.00	40353.96
1309.00	40368.78
1310.00	40531.06
1311.00	40585.67
1312.00	40793.98
1313.00	40599.71
1314.00	40449.14
1315.00	40289.20
1316.00	40257.21
1317.00	40138.63
1318.00	39959.19
1319.00	39915.50
1320.00	39974.01
1321.00	39866.34
1322.00	39856.98
1323.00	39724.35
1324.00	39693.15
1325.00	39483.28
1326.00	39252.34
1327.00	39118.93
1328.00	38810.76
1329.00	38653.95
1330.00	38562.67
1331.00	38866.16
1332.00	39118.15
1333.00	39169.65
1334.00	39373.27
1335.00	39534.77
1336.00	39867.91
1337.00	40005.22
1338.00	40216.65
1339.00	40179.98
1340.00	39950.60
1341.00	39709.53
1342.00	39556.61
1343.00	39762.58
1344.00	39662.72
1345.00	39685.34
1346.00	39428.66
1347.00	39388.10
1348.00	39233.62
1349.00	39218.02
1350.00	39214.90
1351.00	39216.46
1352.00	38984.74
1353.00	38928.57
1354.00	38881.76
1355.00	38889.56
1356.00	38821.69
1357.00	38793.60
1358.00	38699.20
1359.00	38708.56
1360.00	38684.37
1361.00	38781.12
1362.00	38672.67
1363.00	38622.74
1364.00	38561.89
1365.00	38415.21
1366.00	38180.38
1367.00	37929.16
1368.00	37821.50
1369.00	37709.93
1370.00	37692.77
1371.00	37670.92
1372.00	37753.62
1373.00	37796.53
1374.00	37710.71
1375.00	37585.88
1376.00	37451.69
1377.00	37480.56
1378.00	37479.00
1379.00	37420.49
1380.00	37222.32
1381.00	37017.91
1382.00	36832.23
1383.00	36744.07
1384.00	36707.40
1385.00	36842.37
1386.00	36900.89
1387.00	36997.63
1388.00	36939.11
1389.00	36853.30
1390.00	36703.50
1391.00	36527.96
1392.00	36411.71
1393.00	36310.29
1394.00	36208.87
1395.00	36106.66
1396.00	36066.10
1397.00	36023.19
1398.00	36051.27
1399.00	36119.15
1400.00	36181.56
1401.00	35954.53
1402.00	35617.49
1403.00	35224.28
1404.00	35012.07
1405.00	34861.50
1406.00	34841.99
1407.00	35051.08
1408.00	35209.46
1409.00	35465.36
1410.00	35618.27
1411.00	35721.26
1412.00	35680.69
1413.00	35582.38
1414.00	35456.00
1415.00	35301.52
1416.00	35087.75
1417.00	34728.87
1418.00	34345.02
1419.00	33840.25
1420.00	33592.93
1421.00	33458.74
1422.00	33574.98
1423.00	33624.14
1424.00	33629.60
1425.00	33589.03
1426.00	33669.39
1427.00	33811.38
1428.00	34121.11
1429.00	34229.55
1430.00	34494.04
1431.00	34478.43
1432.00	34717.17
1433.00	34759.30
1434.00	34772.56
1435.00	34653.19
1436.00	34403.53
1437.00	34238.92
1438.00	33897.98
1439.00	33807.48
1440.00	33758.33
1441.00	33851.17
1442.00	33873.79
1443.00	33928.41
1444.00	34033.73
1445.00	34117.21
1446.00	34138.27
1447.00	34099.26
1448.00	34036.07
1449.00	34100.05
1450.00	34167.14
1451.00	34135.15
1452.00	33993.94
1453.00	33724.00
1454.00	33463.42
1455.00	33152.91
1456.00	33012.48
1457.00	32917.29
1458.00	33111.56
1459.00	33143.55
1460.00	33123.26
1461.00	32950.84
1462.00	32644.23
1463.00	32434.36
1464.00	32258.82
1465.00	32287.69
1466.00	32300.17
1467.00	32060.66
1468.00	31988.10
1469.00	31831.29
1470.00	31859.37
1471.00	31786.82
1472.00	31850.01
1473.00	31771.99
1474.00	31578.51
1475.00	31337.43
1476.00	31457.58
1477.00	31456.02
1478.00	31321.83
1479.00	31020.68
1480.00	30803.79
1481.00	30696.13
1482.00	30436.33
1483.00	30533.07
1484.00	30671.16
1485.00	30799.11
1486.00	30723.43
1487.00	30771.80
1488.00	30934.08
1489.00	31064.37
1490.00	31028.48
1491.00	30824.08
1492.00	30604.06
1493.00	30250.64
1494.00	29763.03
1495.00	29158.39
1496.00	28588.08
1497.00	28229.20
1498.00	27972.52
1499.00	28004.51
1500.00	28343.89
1501.00	28765.18
1502.00	29024.20
1503.00	29127.19
1504.00	29298.05
1505.00	29343.30
1506.00	29188.82
1507.00	28888.45
1508.00	28728.52
1509.00	28646.60
1510.00	28681.70
1511.00	28534.25
1512.00	28489.78
1513.00	28464.82
1514.00	28712.13
1515.00	28879.09
1516.00	28918.88
1517.00	28887.67
1518.00	28747.24
1519.00	28655.96
1520.00	28469.50
1521.00	28237.00
1522.00	27925.71
1523.00	27788.40
1524.00	27928.05
1525.00	28225.30
1526.00	28370.41
1527.00	28577.94
1528.00	28812.77
1529.00	29040.59
1530.00	29024.20
1531.00	28875.97
1532.00	28892.35
1533.00	28776.11
1534.00	28626.31
1535.00	28507.73
1536.00	28540.49
1537.00	28535.03
1538.00	28435.95
1539.00	28388.36
1540.00	28366.51
1541.00	28332.96
1542.00	28370.41
1543.00	28586.52
1544.00	28736.32
1545.00	28776.11
1546.00	28746.46
1547.00	28577.16
1548.00	28557.66
1549.00	28331.40
1550.00	28328.28
1551.00	28095.79
1552.00	28028.70
1553.00	27988.91
1554.00	28079.41
1555.00	28045.86
1556.00	28024.79
1557.00	28045.08
1558.00	28213.60
1559.00	28282.25
1560.00	28251.83
1561.00	28339.99
1562.00	28442.19
1563.00	28443.75
1564.00	28254.95
1565.00	28056.00
1566.00	28085.65
1567.00	28125.44
1568.00	28191.75
1569.00	28114.52
1570.00	28073.95
1571.00	27868.76
1572.00	27768.90
1573.00	27682.30
1574.00	27612.08
1575.00	27418.60
1576.00	27219.65
1577.00	27157.24
1578.00	27170.50
1579.00	27080.78
1580.00	26928.64
1581.00	26823.32
1582.00	26814.74
1583.00	26855.31
1584.00	26707.07
1585.00	26608.77
1586.00	26540.11
1587.00	26637.64
1588.00	26691.47
1589.00	26718.00
1590.00	26589.27
1591.00	26518.27
1592.00	26582.24
1593.00	26703.95
1594.00	26649.34
1595.00	26493.30
1596.00	26560.40
1597.00	26599.41
1598.00	26643.88
1599.00	26501.11
1600.00	26462.10
1601.00	26281.88
1602.00	26297.48
1603.00	26160.17
1604.00	26121.94
1605.00	25926.89
1606.00	26052.50
1607.00	26100.87
1608.00	26256.91
1609.00	26199.18
1610.00	26149.25
1611.00	25905.83
1612.00	25855.90
1613.00	25754.47
1614.00	25686.60
1615.00	25580.50
1616.00	25506.38
1617.00	25401.05
1618.00	25416.66
1619.00	25297.29
1620.00	25335.52
1621.00	25003.16
1622.00	25009.40
1623.00	24868.97
1624.00	24849.47
1625.00	24820.60
1626.00	24716.84
1627.00	24728.54
1628.00	24574.06
1629.00	24535.06
1630.00	24477.32
1631.00	24401.65
1632.00	24342.35
1633.00	24143.41
1634.00	24081.77
1635.00	24070.07
1636.00	24187.88
1637.00	24304.90
1638.00	24176.17
1639.00	24122.34
1640.00	23821.97
1641.00	23629.27
1642.00	23278.19
1643.00	23046.47
1644.00	22955.97
1645.00	23174.42
1646.00	23359.33
1647.00	23665.94
1648.00	23875.80
1649.00	24179.29
1650.00	24356.39
1651.00	24377.46
1652.00	24441.43
1653.00	24487.46
1654.00	24364.98
1655.00	24049.00
1656.00	23640.19
1657.00	23465.43
1658.00	23413.16
1659.00	23448.27
1660.00	23451.39
1661.00	23543.45
1662.00	23606.64
1663.00	23606.64
1664.00	23612.88
1665.00	23755.66
1666.00	23916.37
1667.00	23971.77
1668.00	23801.69
1669.00	23746.30
1670.00	23608.98
1671.00	23658.14
1672.00	23639.41
1673.00	23738.49
1674.00	23650.33
1675.00	23566.07
1676.00	23365.57
1677.00	23179.11
1678.00	22928.67
1679.00	22764.83
1680.00	22657.17
1681.00	22519.07
1682.00	22409.85
1683.00	22146.93
1684.00	21853.58
1685.00	21387.04
1686.00	20816.72
1687.00	20006.12
1688.00	19154.94
1689.00	18396.61
1690.00	18135.25
1691.00	18272.56
1692.00	18633.00
1693.00	19087.07
1694.00	19683.13
1695.00	20395.43
1696.00	21015.67
1697.00	21352.71
1698.00	21638.25
1699.00	21802.09
1700.00	22099.34
1701.00	22182.04
1702.00	22421.55
1703.00	22396.59
1704.00	22483.19
1705.00	22296.72
1706.00	22235.87
1707.00	22189.84
1708.00	22209.34
1709.00	22160.97
1710.00	22162.53
1711.00	22013.52
1712.00	21985.43
1713.00	21889.47
1714.00	21985.43
1715.00	22047.07
1716.00	22118.06
1717.00	22086.08
1718.00	22104.02
1719.00	22160.19
1720.00	22223.39
1721.00	22132.89
1722.00	22157.85
1723.00	22029.12
1724.00	22114.94
1725.00	22001.04
1726.00	22159.41
1727.00	22097.00
1728.00	22057.99
1729.00	21929.26
1730.00	21866.84
1731.00	21916.00
1732.00	21977.63
1733.00	21948.76
1734.00	21770.88
1735.00	21623.43
1736.00	21328.52
1737.00	21188.87
1738.00	20958.72
1739.00	21007.09
1740.00	20915.03
1741.00	20982.90
1742.00	21028.93
1743.00	20985.24
1744.00	20835.45
1745.00	20629.48
1746.00	20652.89
1747.00	20683.31
1748.00	20839.35
1749.00	20994.61
1750.00	21076.52
1751.00	21085.11
1752.00	20908.79
1753.00	20771.47
1754.00	20737.93
1755.00	20694.24
1756.00	20752.75
1757.00	20664.59
1758.00	20558.49
1759.00	20379.82
1760.00	20225.35
1761.00	20210.53
1762.00	20195.70
1763.00	20141.87
1764.00	20099.74
1765.00	20062.29
1766.00	20095.06
1767.00	20013.14
1768.00	19956.19
1769.00	19782.21
1770.00	19760.36
1771.00	19716.67
1772.00	19672.20
1773.00	19688.59
1774.00	19729.94
1775.00	19879.73
1776.00	19907.04
1777.00	20012.36
1778.00	20014.70
1779.00	19932.78
1780.00	19804.83
1781.00	19604.33
1782.00	19616.03
1783.00	19389.00
1784.00	19423.33
1785.00	19293.04
1786.00	19329.70
1787.00	19210.34
1788.00	19128.42
1789.00	19059.76
1790.00	19108.91
1791.00	19054.30
1792.00	18999.69
1793.00	18828.05
1794.00	18807.76
1795.00	18691.52
1796.00	18597.90
1797.00	18456.68
1798.00	18335.76
1799.00	18188.30
1800.00	18111.85
1801.00	18090.00
1802.00	18081.42
1803.00	18140.71
1804.00	18153.98
1805.00	18322.49
1806.00	18189.86
1807.00	18218.73
1808.00	18096.24
1809.00	18083.76
1810.00	17958.15
1811.00	17864.53
1812.00	17821.62
1813.00	17787.29
1814.00	17713.95
1815.00	17718.64
1816.00	17553.24
1817.00	17502.53
1818.00	17380.04
1819.00	17525.15
1820.00	17444.79
1821.00	17471.32
1822.00	17348.05
1823.00	17320.74
1824.00	17184.21
1825.00	17132.72
1826.00	17190.45
1827.00	17225.56
1828.00	17210.74
1829.00	17129.60
1830.00	16895.55
1831.00	16840.93
1832.00	16844.84
1833.00	16933.78
1834.00	16879.16
1835.00	16795.68
1836.00	16624.83
1837.00	16548.37
1838.00	16525.74
1839.00	16555.39
1840.00	16532.76
1841.00	16401.69
1842.00	16439.14
1843.00	16475.81
1844.00	16475.03
1845.00	16311.19
1846.00	16117.71
1847.00	15896.92
1848.00	15871.95
1849.00	15883.66
1850.00	15962.45
1851.00	15910.18
1852.00	15816.56
1853.00	15819.68
1854.00	15778.33
1855.00	15767.41
1856.00	15656.62
1857.00	15670.67
1858.00	15614.49
1859.00	15589.53
1860.00	15523.99
1861.00	15484.98
1862.00	15396.82
1863.00	15342.99
1864.00	15239.23
1865.00	15152.63
1866.00	14988.79
1867.00	15013.76
1868.00	14973.19
1869.00	14969.29
1870.00	14904.53
1871.00	14927.94
1872.00	14867.86
1873.00	14756.30
1874.00	14709.49
1875.00	14674.38
1876.00	14683.74
1877.00	14562.03
1878.00	14528.49
1879.00	14522.24
1880.00	14470.75
1881.00	14406.00
1882.00	14256.20
1883.00	14127.47
1884.00	14060.38
1885.00	13898.88
1886.00	13783.41
1887.00	13650.00
1888.00	13597.73
1889.00	13592.27
1890.00	13602.41
1891.00	13508.79
1892.00	13540.00
1893.00	13486.17
1894.00	13568.09
1895.00	13486.95
1896.00	13427.65
1897.00	13295.02
1898.00	13224.03
1899.00	13181.12
1900.00	13078.91
1901.00	13097.64
1902.00	13002.46
1903.00	12936.14
1904.00	12465.69
1905.00	11840.77
1906.00	10892.07
1907.00	9992.53
1908.00	9199.87
1909.00	8613.17
1910.00	8253.51
1911.00	8053.00
1912.00	8096.69
1913.00	8308.90
1914.00	8622.53
1915.00	9025.89
1916.00	9496.33
1917.00	9893.44
1918.00	10218.78
1919.00	10274.17
1920.00	10208.64
1921.00	10028.42
1922.00	9912.95
1923.00	9780.32
1924.00	9653.93
1925.00	9543.14
1926.00	9536.90
1927.00	9522.08
1928.00	9518.96
1929.00	9607.90
1930.00	9714.00
1931.00	9809.19
1932.00	9819.33
1933.00	9871.60
1934.00	9890.32
1935.00	9999.55
1936.00	10094.73
1937.00	10160.27
1938.00	10182.89
1939.00	10214.10
1940.00	10273.39
1941.00	10261.69
1942.00	10235.16
1943.00	10213.32
1944.00	10300.70
1945.00	10376.38
1946.00	10345.17
1947.00	10225.02
1948.00	10095.51
1949.00	10131.40
1950.00	10172.75
1951.00	10168.07
1952.00	10015.93
1953.00	9877.06
1954.00	9879.40
1955.00	9949.62
1956.00	9940.26
1957.00	9894.22
1958.00	9769.40
1959.00	9698.40
1960.00	9552.51
1961.00	9477.61
1962.00	9412.07
1963.00	9414.41
1964.00	9453.42
1965.00	9412.07
1966.00	9354.34
1967.00	9249.80
1968.00	9277.10
1969.00	9277.88
1970.00	9307.53
1971.00	9227.95
1972.00	9163.98
1973.00	9153.84
1974.00	9146.81
1975.00	9163.20
1976.00	9063.33
1977.00	9083.62
1978.00	9124.19
1979.00	9231.07
1980.00	9252.14
1981.00	9256.04
1982.00	9227.17
1983.00	9209.23
1984.00	9145.25
1985.00	9075.82
1986.00	9024.33
1987.00	8902.62
1988.00	8854.25
1989.00	8711.47
1990.00	8720.84
1991.00	8620.19
1992.00	8599.13
1993.00	8546.08
1994.00	8570.26
1995.00	8528.91
1996.00	8443.87
1997.00	8337.77
1998.00	8340.89
1999.00	8265.99
2000.00	8199.68
2001.00	8166.91
2002.00	8212.94
2003.00	8217.62
2004.00	8095.91
2005.00	7981.23
2006.00	7882.92
2007.00	7792.42
2008.00	7737.81
2009.00	7744.05
2010.00	7738.59
2011.00	7723.77
2012.00	7652.77
2013.00	7706.60
2014.00	7673.06
2015.00	7683.98
2016.00	7573.19
2017.00	7591.14
2018.00	7472.55
2019.00	7406.24
2020.00	7337.58
2021.00	7335.24
2022.00	7294.67
2023.00	7208.07
2024.00	7173.74
2025.00	7169.06
2026.00	7133.95
2027.00	7074.66
2028.00	7032.53
2029.00	7104.31
2030.00	7194.81
2031.00	7240.84
2032.00	7197.15
2033.00	7158.14
2034.00	7160.48
2035.00	7042.67
2036.00	7018.49
2037.00	6976.36
2038.00	7073.88
2039.00	7104.31
2040.00	7079.34
2041.00	7030.19
2042.00	6917.84
2043.00	6862.45
2044.00	6789.89
2045.00	6810.96
2046.00	6795.36
2047.00	6766.49
>>>>>End Processed Spectral Data<<<<<
