SpectraSuite Data File
++++++++++++++++++++++++++++++++++++
Date: Thu Nov 16 13:32:50 EST 2017
User: cheriyan
Dark Spectrum Present: No
Reference Spectrum Present: No
Number of Sampled Component Spectra: 1
Spectrometers: USB2+H05261
Integration Time (usec): 90000 (USB2+H05261)
Spectra Averaged: 1 (USB2+H05261)
Boxcar Smoothing: 1 (USB2+H05261)
Correct for Electrical Dark: No (USB2+H05261)
Strobe/Lamp Enabled: No (USB2+H05261)
Correct for Detector Non-linearity: No (USB2+H05261)
Correct for Stray Light: No (USB2+H05261)
Number of Pixels in Processed Spectrum: 2048
>>>>>Begin Processed Spectral Data<<<<<
0.00	299.59
1.00	299.59
2.00	278.52
3.00	280.08
4.00	275.40
5.00	287.89
6.00	301.15
7.00	294.91
8.00	283.98
9.00	230.15
10.00	229.37
11.00	217.67
12.00	244.20
13.00	227.81
14.00	233.27
15.00	222.35
16.00	251.22
17.00	284.77
18.00	298.81
19.00	304.27
20.00	289.45
21.00	305.83
22.00	305.05
23.00	787.20
24.00	2448.98
25.00	4252.75
26.00	5575.94
27.00	5671.12
28.00	5543.95
29.00	5368.41
30.00	5231.88
31.00	5186.63
32.00	5231.10
33.00	5266.21
34.00	5236.56
35.00	5125.77
36.00	4875.34
37.00	4715.40
38.00	4656.89
39.00	4770.79
40.00	4901.08
41.00	4905.76
42.00	4878.46
43.00	4835.55
44.00	4944.77
45.00	5154.64
46.00	5413.66
47.00	5661.76
48.00	5821.69
49.00	5882.55
50.00	5866.94
51.00	5805.31
52.00	5807.65
53.00	5856.80
54.00	6086.17
55.00	6315.55
56.00	6590.17
57.00	6754.01
58.00	6959.19
59.00	7122.25
60.00	7360.98
61.00	7368.79
62.00	7297.01
63.00	7009.90
64.00	6731.38
65.00	6480.16
66.00	6245.33
67.00	6136.10
68.00	6019.86
69.00	6093.19
70.00	6257.81
71.00	6438.81
72.00	6602.65
73.00	6736.84
74.00	6913.94
75.00	6915.50
76.00	6765.71
77.00	6454.42
78.00	6171.99
79.00	5922.34
80.00	5712.47
81.00	5446.43
82.00	5195.99
83.00	4976.76
84.00	4786.40
85.00	4541.42
86.00	4454.04
87.00	4481.35
88.00	4622.56
89.00	4715.40
90.00	4865.97
91.00	5188.19
92.00	5624.31
93.00	6057.31
94.00	6384.98
95.00	6610.45
96.00	6669.75
97.00	6583.93
98.00	6438.81
99.00	6292.92
100.00	6204.76
101.00	6184.48
102.00	6397.46
103.00	6617.47
104.00	6715.00
105.00	6661.94
106.00	6547.26
107.00	6510.59
108.00	6581.59
109.00	6658.04
110.00	6642.44
111.00	6531.66
112.00	6555.84
113.00	6633.08
114.00	6761.03
115.00	6821.88
116.00	7041.11
117.00	7376.59
118.00	7839.23
119.00	8243.37
120.00	8475.86
121.00	8519.55
122.00	8454.80
123.00	8431.39
124.00	8539.83
125.00	8722.40
126.00	9034.47
127.00	9297.39
128.00	9553.29
129.00	9518.96
130.00	9468.25
131.00	9093.76
132.00	8736.44
133.00	8213.72
134.00	7779.16
135.00	7133.17
136.00	6358.46
137.00	5478.41
138.00	4898.74
139.00	4718.52
140.00	4940.87
141.00	5470.61
142.00	6171.99
143.00	7010.68
144.00	7800.23
145.00	8470.40
146.00	9051.63
147.00	9458.88
148.00	9815.43
149.00	10066.64
150.00	10186.01
151.00	10026.86
152.00	9493.21
153.00	8641.26
154.00	7703.48
155.00	6802.38
156.00	6157.17
157.00	5850.56
158.00	6106.46
159.00	6883.52
160.00	7982.79
161.00	9184.26
162.00	10352.19
163.00	11257.98
164.00	11933.61
165.00	12392.36
166.00	12787.91
167.00	13152.25
168.00	13423.75
169.00	13687.45
170.00	13816.96
171.00	13878.60
172.00	13862.99
173.00	13920.73
174.00	14072.86
175.00	14151.66
176.00	14260.88
177.00	14376.35
178.00	14693.88
179.00	15058.23
180.00	15346.11
181.00	15544.28
182.00	15602.01
183.00	15673.01
184.00	15786.13
185.00	15770.53
186.00	15649.60
187.00	15442.85
188.00	15245.47
189.00	15093.33
190.00	15006.73
191.00	15222.06
192.00	15502.15
193.00	15830.60
194.00	15812.66
195.00	15604.35
196.00	15282.14
197.00	15077.73
198.00	15239.23
199.00	15417.11
200.00	15699.53
201.00	15729.18
202.00	15629.32
203.00	15438.17
204.00	15300.86
205.00	15201.00
206.00	15148.73
207.00	15186.96
208.00	15232.99
209.00	15367.96
210.00	15438.95
211.00	15494.35
212.00	15533.36
213.00	15675.35
214.00	16026.43
215.00	16276.87
216.00	16515.60
217.00	16764.48
218.00	17071.09
219.00	17345.71
220.00	17340.25
221.00	17422.17
222.00	17188.89
223.00	16706.74
224.00	16052.95
225.00	15392.14
226.00	15285.26
227.00	15415.55
228.00	15875.85
229.00	16365.03
230.00	16950.94
231.00	17485.36
232.00	18015.88
233.00	18345.90
234.00	18628.32
235.00	18657.97
236.00	18745.35
237.00	18694.64
238.00	18751.59
239.00	18572.93
240.00	18573.71
241.00	18405.97
242.00	18440.30
243.00	18398.95
244.00	18817.91
245.00	19035.58
246.00	19300.06
247.00	19295.38
248.00	19151.82
249.00	19136.22
250.00	19066.00
251.00	19147.14
252.00	19126.08
253.00	19167.43
254.00	19325.02
255.00	19627.73
256.00	19912.50
257.00	20357.98
258.00	20568.63
259.00	20766.79
260.00	20605.30
261.00	20399.33
262.00	19999.88
263.00	19684.69
264.00	19476.38
265.00	19477.16
266.00	19614.47
267.00	19870.37
268.00	19968.67
269.00	19995.98
270.00	19983.49
271.00	20067.75
272.00	20416.49
273.00	20573.31
274.00	20666.93
275.00	20460.96
276.00	20208.19
277.00	19826.68
278.00	19581.70
279.00	19766.60
280.00	20283.86
281.00	21008.65
282.00	21531.37
283.00	21989.33
284.00	21981.53
285.00	21916.00
286.00	21774.78
287.00	21615.63
288.00	21272.35
289.00	20818.28
290.00	20162.94
291.00	19619.93
292.00	19269.63
293.00	19567.66
294.00	19997.54
295.00	20393.09
296.00	20585.01
297.00	20616.22
298.00	20799.56
299.00	20798.00
300.00	20931.41
301.00	20725.44
302.00	20662.25
303.00	20634.94
304.00	20556.93
305.00	20478.91
306.00	20262.02
307.00	20171.52
308.00	19989.74
309.00	19917.18
310.00	20194.14
311.00	20590.47
312.00	20733.25
313.00	20479.69
314.00	19864.91
315.00	19251.69
316.00	18918.55
317.00	18924.01
318.00	19341.41
319.00	19620.71
320.00	19916.40
321.00	19908.60
322.00	19804.83
323.00	19657.38
324.00	19456.09
325.00	19335.95
326.00	19212.68
327.00	19017.63
328.00	18398.17
329.00	17571.96
330.00	16777.74
331.00	15966.35
332.00	15332.07
333.00	14772.68
334.00	14682.96
335.00	14817.93
336.00	15389.02
337.00	16534.32
338.00	18232.77
339.00	20127.83
340.00	21649.18
341.00	22312.33
342.00	21962.81
343.00	21372.21
344.00	20798.78
345.00	21000.07
346.00	21457.25
347.00	22055.65
348.00	22485.53
349.00	22336.51
350.00	21688.18
351.00	20704.38
352.00	19957.75
353.00	19968.67
354.00	20448.48
355.00	21146.74
356.00	21709.25
357.00	22163.31
358.00	22334.17
359.00	22598.65
360.00	22796.04
361.00	23333.58
362.00	23675.30
363.00	24063.83
364.00	24334.55
365.00	24431.29
366.00	24246.39
367.00	24002.97
368.00	23777.50
369.00	23475.57
370.00	23317.98
371.00	23004.35
372.00	22792.92
373.00	22258.49
374.00	21812.23
375.00	21384.69
376.00	21034.39
377.00	21024.25
378.00	21481.44
379.00	22253.03
380.00	22941.15
381.00	23597.28
382.00	24005.31
383.00	24297.10
384.00	24043.54
385.00	23694.02
386.00	23511.46
387.00	23726.01
388.00	24197.24
389.00	24951.67
390.00	25523.54
391.00	25990.09
392.00	26244.43
393.00	26658.70
394.00	27098.72
395.00	27332.00
396.00	27378.03
397.00	27509.88
398.00	27703.36
399.00	28055.22
400.00	27855.50
401.00	27693.22
402.00	27448.24
403.00	27878.90
404.00	28076.29
405.00	28283.81
406.00	28384.46
407.00	28400.84
408.00	28190.19
409.00	28121.54
410.00	28318.92
411.00	28561.56
412.00	28034.94
413.00	27252.42
414.00	26386.42
415.00	25954.20
416.00	25951.86
417.00	26135.20
418.00	26604.87
419.00	26950.49
420.00	27398.31
421.00	27857.84
422.00	28207.36
423.00	28675.46
424.00	28984.41
425.00	29172.44
426.00	29052.29
427.00	28663.76
428.00	28594.32
429.00	28595.10
430.00	28745.68
431.00	28654.40
432.00	28498.36
433.00	28520.21
434.00	28590.42
435.00	28817.46
436.00	29030.44
437.00	29297.27
438.00	29585.15
439.00	30053.26
440.00	30718.75
441.00	31181.40
442.00	31347.58
443.00	31161.11
444.00	31063.59
445.00	30690.66
446.00	30391.86
447.00	30223.34
448.00	30237.38
449.00	30112.55
450.00	29848.07
451.00	29407.27
452.00	28891.57
453.00	28246.37
454.00	27885.92
455.00	27830.53
456.00	28139.48
457.00	28554.54
458.00	29127.19
459.00	29492.31
460.00	29884.74
461.00	29815.30
462.00	29877.72
463.00	29635.08
464.00	29571.89
465.00	29408.83
466.00	29402.59
467.00	29641.32
468.00	29896.44
469.00	30280.29
470.00	30817.05
471.00	31159.55
472.00	31403.75
473.00	31341.33
474.00	31581.63
475.00	31572.27
476.00	31749.37
477.00	31949.87
478.00	32159.74
479.00	32173.00
480.00	31603.47
481.00	31383.46
482.00	30824.08
483.00	30678.18
484.00	30683.64
485.00	31006.64
486.00	31308.57
487.00	31282.04
488.00	31084.65
489.00	31036.28
490.00	30906.77
491.00	31018.34
492.00	31134.59
493.00	31246.15
494.00	31353.82
495.00	31384.24
496.00	31793.06
497.00	32087.96
498.00	32467.13
499.00	32541.25
500.00	32503.80
501.00	32371.95
502.00	32436.70
503.00	32570.90
504.00	32870.48
505.00	32843.18
506.00	32979.71
507.00	33106.88
508.00	33271.50
509.00	33322.21
510.00	33159.93
511.00	33011.70
512.00	32879.07
513.00	32713.67
514.00	32554.51
515.00	32496.00
516.00	32247.12
517.00	31958.45
518.00	31615.96
519.00	31479.43
520.00	31707.24
521.00	31873.42
522.00	32002.14
523.00	32223.72
524.00	32510.04
525.00	32782.32
526.00	32636.43
527.00	32198.75
528.00	31653.40
529.00	31020.68
530.00	30895.85
531.00	30991.03
532.00	31473.96
533.00	31759.51
534.00	31974.06
535.00	31981.86
536.00	31768.09
537.00	31417.79
538.00	31493.47
539.00	31679.15
540.00	32101.23
541.00	32105.13
542.00	32213.57
543.00	32313.44
544.00	32276.77
545.00	32282.23
546.00	31870.29
547.00	31629.22
548.00	31278.14
549.00	31349.92
550.00	31310.91
551.00	31420.91
552.00	31505.95
553.00	31690.85
554.00	31888.24
555.00	32262.72
556.00	32776.08
557.00	33394.76
558.00	33904.22
559.00	34395.73
560.00	34536.16
561.00	34555.67
562.00	33958.05
563.00	33511.01
564.00	33106.10
565.00	33372.92
566.00	33734.14
567.00	33832.44
568.00	33807.48
569.00	33580.45
570.00	34056.36
571.00	34685.96
572.00	35359.25
573.00	35413.09
574.00	35206.34
575.00	35088.53
576.00	35147.82
577.00	34972.28
578.00	35128.32
579.00	34920.01
580.00	35126.76
581.00	34765.54
582.00	34892.71
583.00	34749.93
584.00	34964.48
585.00	35352.23
586.00	35946.73
587.00	36364.12
588.00	36516.26
589.00	36975.00
590.00	37422.05
591.00	37976.75
592.00	38208.47
593.00	38447.98
594.00	38239.67
595.00	38050.09
596.00	37874.55
597.00	38160.09
598.00	38748.35
599.00	39478.60
600.00	39989.61
601.00	40041.10
602.00	39956.85
603.00	40108.20
604.00	40308.71
605.00	40738.58
606.00	40679.29
607.00	40737.02
608.00	40728.44
609.00	41240.24
610.00	41570.25
611.00	41791.83
612.00	41972.83
613.00	42340.29
614.00	42562.64
615.00	42589.17
616.00	42570.44
617.00	42613.35
618.00	42920.74
619.00	43023.73
620.00	43269.48
621.00	43317.85
622.00	43534.74
623.00	43889.73
624.00	43839.01
625.00	43648.65
626.00	43426.30
627.00	43644.75
628.00	44161.23
629.00	44516.99
630.00	44855.59
631.00	44591.11
632.00	43892.85
633.00	42873.15
634.00	41667.00
635.00	39872.59
636.00	38272.44
637.00	37398.64
638.00	37754.40
639.00	38784.24
640.00	40123.02
641.00	41493.02
642.00	42430.01
643.00	43232.04
644.00	43929.51
645.00	44729.20
646.00	45529.66
647.00	46336.37
648.00	46742.06
649.00	47074.41
650.00	46968.31
651.00	46834.12
652.00	46167.07
653.00	46249.77
654.00	46642.20
655.00	47854.59
656.00	48719.03
657.00	49756.67
658.00	50186.55
659.00	50581.32
660.00	50589.90
661.00	50582.88
662.00	50463.51
663.00	50293.43
664.00	50180.31
665.00	50232.58
666.00	50326.98
667.00	50179.53
668.00	49483.61
669.00	48814.99
670.00	48406.96
671.00	48591.86
672.00	49162.17
673.00	50124.13
674.00	51157.09
675.00	51816.34
676.00	51981.74
677.00	51648.60
678.00	51324.05
679.00	51205.46
680.00	51295.18
681.00	51644.70
682.00	52115.93
683.00	52697.16
684.00	53259.67
685.00	53593.59
686.00	53839.34
687.00	53912.68
688.00	53681.75
689.00	53361.87
690.00	52921.85
691.00	52856.32
692.00	52946.82
693.00	53372.02
694.00	53773.81
695.00	54159.22
696.00	54237.23
697.00	54352.70
698.00	54408.87
699.00	54496.25
700.00	54629.66
701.00	54788.82
702.00	54777.90
703.00	54394.05
704.00	53812.04
705.00	53268.25
706.00	53071.65
707.00	53248.75
708.00	53739.48
709.00	54240.35
710.00	54659.31
711.00	54870.74
712.00	54979.18
713.00	54950.32
714.00	54843.43
715.00	54640.59
716.00	54257.52
717.00	53990.70
718.00	53633.38
719.00	53593.59
720.00	53514.01
721.00	53435.99
722.00	53231.58
723.00	53070.09
724.00	53084.91
725.00	52999.09
726.00	53000.65
727.00	53290.10
728.00	53673.16
729.00	54079.64
730.00	54209.93
731.00	54448.66
732.00	54670.23
733.00	54814.57
734.00	54703.00
735.00	54397.17
736.00	53951.69
737.00	53577.98
738.00	53315.84
739.00	53447.69
740.00	53748.84
741.00	54209.15
742.00	54429.16
743.00	54620.30
744.00	54804.42
745.00	55218.70
746.00	55618.93
747.00	55966.11
748.00	56251.66
749.00	56362.44
750.00	56348.40
751.00	55985.61
752.00	55906.82
753.00	55631.41
754.00	55610.35
755.00	55316.22
756.00	55305.30
757.00	55192.17
758.00	55031.46
759.00	54749.81
760.00	54534.48
761.00	54522.00
762.00	54666.33
763.00	54940.96
764.00	55237.42
765.00	55629.07
766.00	56061.29
767.00	56459.18
768.00	56559.05
769.00	56407.69
770.00	56207.97
771.00	55885.75
772.00	55730.50
773.00	55668.86
774.00	55867.03
775.00	55883.41
776.00	55851.42
777.00	55881.85
778.00	56003.56
779.00	56257.12
780.00	56455.28
781.00	56817.28
782.00	57017.79
783.00	57038.08
784.00	56800.12
785.00	56339.82
786.00	55952.07
787.00	55675.10
788.00	55664.18
789.00	55818.66
790.00	55917.74
791.00	55898.23
792.00	55712.55
793.00	55546.37
794.00	55296.72
795.00	55089.19
796.00	55119.62
797.00	55238.20
798.00	55470.70
799.00	55542.47
800.00	55642.34
801.00	55682.90
802.00	55760.92
803.00	55818.66
804.00	56031.64
805.00	56233.71
806.00	56409.25
807.00	56086.26
808.00	55410.62
809.00	54332.42
810.00	52993.63
811.00	51651.72
812.00	50525.14
813.00	49922.07
814.00	50267.69
815.00	51451.22
816.00	52999.09
817.00	53935.30
818.00	53973.53
819.00	53403.22
820.00	52717.45
821.00	52410.84
822.00	52647.23
823.00	53198.82
824.00	53904.88
825.00	54411.99
826.00	54794.28
827.00	55091.53
828.00	55508.14
829.00	55908.38
830.00	56144.77
831.00	56080.80
832.00	55918.52
833.00	55594.74
834.00	55516.73
835.00	55563.54
836.00	55879.51
837.00	56108.88
838.00	56306.27
839.00	56395.99
840.00	56537.20
841.00	56661.25
842.00	56670.61
843.00	56517.70
844.00	56062.07
845.00	55664.96
846.00	55379.42
847.00	55223.38
848.00	55337.29
849.00	55632.97
850.00	56056.61
851.00	56460.74
852.00	56760.33
853.00	57076.30
854.00	57219.86
855.00	57347.03
856.00	57313.48
857.00	57227.66
858.00	56985.80
859.00	56851.61
860.00	56773.59
861.00	56859.41
862.00	57070.06
863.00	57169.93
864.00	56988.14
865.00	56388.97
866.00	55547.93
867.00	54550.87
868.00	53687.99
869.00	53067.75
870.00	52741.63
871.00	52794.68
872.00	53173.85
873.00	53989.14
874.00	54783.36
875.00	55466.80
876.00	55649.36
877.00	55716.45
878.00	55837.38
879.00	56232.15
880.00	56692.46
881.00	56993.60
882.00	57182.41
883.00	57332.98
884.00	57276.81
885.00	56931.97
886.00	56455.28
887.00	56140.09
888.00	56121.37
889.00	56129.95
890.00	56385.07
891.00	56690.90
892.00	57121.55
893.00	57215.96
894.00	57293.19
895.00	57214.40
896.00	57178.51
897.00	56899.98
898.00	56726.78
899.00	56548.12
900.00	56384.29
901.00	55991.08
902.00	55501.90
903.00	54881.66
904.00	54485.33
905.00	54383.13
906.00	54655.41
907.00	55046.28
908.00	55367.71
909.00	55923.98
910.00	56095.62
911.00	56141.65
912.00	55697.73
913.00	55501.12
914.00	55405.16
915.00	55530.77
916.00	55650.14
917.00	55804.61
918.00	56041.01
919.00	56294.56
920.00	56534.08
921.00	56773.59
922.00	56990.48
923.00	56954.60
924.00	56678.41
925.00	56208.75
926.00	55751.56
927.00	55300.62
928.00	54888.68
929.00	54711.58
930.00	54663.21
931.00	54869.18
932.00	55224.16
933.00	55586.94
934.00	55735.18
935.00	55769.50
936.00	55809.29
937.00	55917.74
938.00	55810.07
939.00	55622.05
940.00	55465.24
941.00	55317.78
942.00	55087.63
943.00	54824.71
944.00	54621.08
945.00	54491.57
946.00	54426.82
947.00	54199.01
948.00	53992.26
949.00	53670.82
950.00	53633.38
951.00	53549.12
952.00	53430.53
953.00	53462.52
954.00	53691.89
955.00	54120.21
956.00	54363.62
957.00	54537.60
958.00	54687.40
959.00	54751.37
960.00	54719.38
961.00	54528.24
962.00	54507.96
963.00	54472.07
964.00	54497.03
965.00	54347.24
966.00	54386.25
967.00	54428.38
968.00	54626.54
969.00	54711.58
970.00	55037.70
971.00	55342.75
972.00	55469.14
973.00	55174.23
974.00	54905.85
975.00	54803.64
976.00	54789.60
977.00	54770.88
978.00	54596.12
979.00	54596.90
980.00	54498.59
981.00	54699.88
982.00	54785.70
983.00	54824.71
984.00	54635.13
985.00	54546.97
986.00	54407.31
987.00	54411.21
988.00	54376.89
989.00	54368.30
990.00	54241.14
991.00	53935.30
992.00	53759.76
993.00	53578.76
994.00	53638.84
995.00	53761.33
996.00	54004.74
997.00	54310.57
998.00	54460.37
999.00	54574.27
1000.00	54539.94
1001.00	54503.28
1002.00	54411.21
1003.00	54260.64
1004.00	54404.19
1005.00	54456.46
1006.00	54476.75
1007.00	54232.55
1008.00	54067.94
1009.00	53896.30
1010.00	53851.83
1011.00	53730.90
1012.00	53838.56
1013.00	53741.82
1014.00	53861.97
1015.00	53817.50
1016.00	53982.90
1017.00	54191.20
1018.00	54403.41
1019.00	54486.89
1020.00	54232.55
1021.00	53975.09
1022.00	53599.05
1023.00	53277.61
1024.00	53069.31
1025.00	53130.94
1026.00	53435.21
1027.00	53695.79
1028.00	53851.83
1029.00	53820.62
1030.00	53762.11
1031.00	53927.50
1032.00	54103.04
1033.00	54328.52
1034.00	54210.71
1035.00	54184.96
1036.00	54138.93
1037.00	54030.49
1038.00	53943.11
1039.00	53823.74
1040.00	53836.22
1041.00	53673.95
1042.00	53372.02
1043.00	53223.00
1044.00	53122.36
1045.00	53084.13
1046.00	52817.31
1047.00	52645.67
1048.00	52471.69
1049.00	52320.34
1050.00	52352.32
1051.00	52541.13
1052.00	52773.62
1053.00	52810.29
1054.00	52785.32
1055.00	52721.35
1056.00	52578.57
1057.00	52225.15
1058.00	51689.17
1059.00	51094.67
1060.00	50847.36
1061.00	50883.25
1062.00	51217.16
1063.00	51313.12
1064.00	51389.58
1065.00	51214.82
1066.00	51152.41
1067.00	51252.27
1068.00	51533.92
1069.00	51815.56
1070.00	52083.94
1071.00	52335.16
1072.00	52619.14
1073.00	52702.62
1074.00	52465.45
1075.00	52161.96
1076.00	51768.75
1077.00	51548.74
1078.00	51366.96
1079.00	51228.87
1080.00	51189.08
1081.00	51246.03
1082.00	51419.23
1083.00	51611.15
1084.00	51750.80
1085.00	51853.01
1086.00	51966.13
1087.00	51917.76
1088.00	51682.15
1089.00	51497.25
1090.00	51311.56
1091.00	51323.27
1092.00	51221.06
1093.00	51235.89
1094.00	51237.45
1095.00	51148.51
1096.00	51130.56
1097.00	51050.20
1098.00	51049.42
1099.00	50795.09
1100.00	50492.38
1101.00	50048.46
1102.00	49702.84
1103.00	49506.23
1104.00	49459.42
1105.00	49680.99
1106.00	49975.90
1107.00	50300.45
1108.00	50489.26
1109.00	50624.23
1110.00	50746.72
1111.00	50762.32
1112.00	50957.36
1113.00	50976.87
1114.00	50809.13
1115.00	50272.37
1116.00	49802.70
1117.00	49533.54
1118.00	49287.00
1119.00	48939.04
1120.00	48679.24
1121.00	48679.24
1122.00	48910.17
1123.00	49081.81
1124.00	49066.21
1125.00	49099.76
1126.00	48995.99
1127.00	49141.11
1128.00	48901.59
1129.00	48661.30
1130.00	48003.61
1131.00	47607.28
1132.00	47214.07
1133.00	47087.68
1134.00	47009.66
1135.00	46954.27
1136.00	47039.31
1137.00	47153.21
1138.00	47533.16
1139.00	47909.99
1140.00	48322.70
1141.00	48635.55
1142.00	48779.10
1143.00	48764.28
1144.00	48607.47
1145.00	48467.81
1146.00	48476.40
1147.00	48404.62
1148.00	48257.17
1149.00	48161.98
1150.00	48186.95
1151.00	48180.71
1152.00	48070.70
1153.00	47943.53
1154.00	47733.67
1155.00	47505.07
1156.00	47285.84
1157.00	47188.32
1158.00	47015.90
1159.00	46880.15
1160.00	46707.73
1161.00	46590.70
1162.00	46275.51
1163.00	46151.46
1164.00	46144.44
1165.00	46298.92
1166.00	46232.60
1167.00	46199.83
1168.00	46426.87
1169.00	46642.20
1170.00	46655.46
1171.00	46444.81
1172.00	46308.28
1173.00	46284.09
1174.00	46149.12
1175.00	46032.10
1176.00	45840.95
1177.00	45728.61
1178.00	45525.76
1179.00	45194.96
1180.00	44949.21
1181.00	44776.79
1182.00	44822.82
1183.00	44981.98
1184.00	45181.70
1185.00	45329.16
1186.00	45414.97
1187.00	45617.04
1188.00	45890.10
1189.00	46021.95
1190.00	45981.38
1191.00	45897.91
1192.00	45575.69
1193.00	45475.05
1194.00	45338.52
1195.00	45666.97
1196.00	45798.82
1197.00	45915.85
1198.00	45727.83
1199.00	45725.49
1200.00	45805.84
1201.00	46124.94
1202.00	46176.43
1203.00	46260.69
1204.00	46226.36
1205.00	46353.53
1206.00	46375.37
1207.00	46489.28
1208.00	46394.88
1209.00	46327.00
1210.00	46086.71
1211.00	45936.13
1212.00	46046.14
1213.00	46011.03
1214.00	45904.15
1215.00	45761.37
1216.00	45811.31
1217.00	45915.07
1218.00	45905.71
1219.00	45833.93
1220.00	45779.32
1221.00	45298.73
1222.00	45030.35
1223.00	44660.54
1224.00	44346.13
1225.00	43976.33
1226.00	43785.96
1227.00	43780.50
1228.00	43792.20
1229.00	43814.83
1230.00	43861.64
1231.00	43988.03
1232.00	44190.09
1233.00	44385.92
1234.00	44399.96
1235.00	44208.04
1236.00	44195.56
1237.00	44014.55
1238.00	44020.02
1239.00	43897.53
1240.00	43651.77
1241.00	43110.33
1242.00	42430.01
1243.00	41539.05
1244.00	40371.90
1245.00	39007.37
1246.00	37990.80
1247.00	37472.76
1248.00	37335.45
1249.00	37433.75
1250.00	37684.97
1251.00	38203.00
1252.00	39008.15
1253.00	40023.16
1254.00	40977.32
1255.00	41652.17
1256.00	41991.55
1257.00	42185.04
1258.00	42299.72
1259.00	42200.64
1260.00	41905.73
1261.00	41684.94
1262.00	41539.05
1263.00	41492.24
1264.00	41415.78
1265.00	41410.32
1266.00	41327.62
1267.00	41283.93
1268.00	41490.68
1269.00	41748.14
1270.00	41684.94
1271.00	41478.97
1272.00	41373.65
1273.00	41510.18
1274.00	41726.29
1275.00	41595.22
1276.00	41466.49
1277.00	41074.06
1278.00	40897.74
1279.00	40761.99
1280.00	40465.52
1281.00	40359.42
1282.00	40085.58
1283.00	40052.81
1284.00	40037.98
1285.00	40287.64
1286.00	40658.23
1287.00	40656.67
1288.00	40744.05
1289.00	40820.50
1290.00	41159.88
1291.00	41283.93
1292.00	41295.63
1293.00	41051.44
1294.00	40923.49
1295.00	40800.22
1296.00	40891.50
1297.00	40683.97
1298.00	40698.02
1299.00	40696.45
1300.00	40778.37
1301.00	40765.89
1302.00	40607.51
1303.00	40361.76
1304.00	40263.46
1305.00	40161.25
1306.00	40163.59
1307.00	39903.79
1308.00	39903.79
1309.00	39948.26
1310.00	40104.30
1311.00	40208.84
1312.00	40498.29
1313.00	40476.44
1314.00	40452.26
1315.00	40233.03
1316.00	40193.24
1317.00	40119.90
1318.00	40003.66
1319.00	39955.29
1320.00	39970.89
1321.00	39776.62
1322.00	39744.64
1323.00	39423.20
1324.00	39491.86
1325.00	39388.88
1326.00	39390.44
1327.00	39291.35
1328.00	38958.22
1329.00	38834.95
1330.00	38699.20
1331.00	38986.30
1332.00	39111.91
1333.00	39414.62
1334.00	39598.74
1335.00	39737.62
1336.00	39763.36
1337.00	39964.65
1338.00	40012.24
1339.00	40091.82
1340.00	39774.28
1341.00	39812.51
1342.00	39711.87
1343.00	39846.06
1344.00	39605.77
1345.00	39558.95
1346.00	39430.22
1347.00	39548.03
1348.00	39487.96
1349.00	39239.86
1350.00	38978.50
1351.00	38763.95
1352.00	38636.00
1353.00	38614.16
1354.00	38550.96
1355.00	38637.56
1356.00	38776.44
1357.00	38734.31
1358.00	38762.39
1359.00	38579.83
1360.00	38765.51
1361.00	38851.33
1362.00	38811.54
1363.00	38689.06
1364.00	38483.87
1365.00	38414.43
1366.00	38192.08
1367.00	37781.71
1368.00	37636.59
1369.00	37616.31
1370.00	37748.94
1371.00	37731.00
1372.00	37743.48
1373.00	37715.39
1374.00	37579.64
1375.00	37376.80
1376.00	37316.72
1377.00	37117.00
1378.00	37012.45
1379.00	36826.77
1380.00	36851.73
1381.00	36678.54
1382.00	36522.50
1383.00	36510.80
1384.00	36467.89
1385.00	36655.91
1386.00	36623.92
1387.00	36840.81
1388.00	36944.58
1389.00	37032.74
1390.00	37007.77
1391.00	36881.38
1392.00	36659.03
1393.00	36335.26
1394.00	36015.38
1395.00	35923.32
1396.00	35990.42
1397.00	36025.53
1398.00	36137.09
1399.00	36220.57
1400.00	36257.24
1401.00	35999.78
1402.00	35498.91
1403.00	35075.27
1404.00	34840.43
1405.00	34776.46
1406.00	34957.46
1407.00	35179.81
1408.00	35463.80
1409.00	35494.22
1410.00	35531.67
1411.00	35523.87
1412.00	35546.50
1413.00	35385.00
1414.00	35226.62
1415.00	35062.79
1416.00	34971.50
1417.00	34645.39
1418.00	34146.08
1419.00	33618.67
1420.00	33364.34
1421.00	33344.83
1422.00	33430.65
1423.00	33437.67
1424.00	33524.27
1425.00	33590.59
1426.00	33721.66
1427.00	33845.71
1428.00	34022.03
1429.00	34125.79
1430.00	34206.93
1431.00	34227.99
1432.00	34543.97
1433.00	34662.55
1434.00	34736.67
1435.00	34535.38
1436.00	34361.40
1437.00	34185.08
1438.00	33916.70
1439.00	33749.74
1440.00	33697.47
1441.00	33918.26
1442.00	34084.44
1443.00	34106.29
1444.00	33941.67
1445.00	33789.53
1446.00	33905.78
1447.00	34057.14
1448.00	34210.05
1449.00	34223.31
1450.00	34245.94
1451.00	34107.07
1452.00	33858.97
1453.00	33492.29
1454.00	33258.23
1455.00	33079.57
1456.00	32982.83
1457.00	33006.23
1458.00	32943.04
1459.00	32939.92
1460.00	32930.56
1461.00	32892.33
1462.00	32737.07
1463.00	32428.12
1464.00	32244.00
1465.00	32085.62
1466.00	32107.47
1467.00	32130.87
1468.00	32192.51
1469.00	32215.13
1470.00	32145.70
1471.00	31981.08
1472.00	31717.38
1473.00	31548.08
1474.00	31441.98
1475.00	31258.63
1476.00	31143.17
1477.00	31130.69
1478.00	31146.29
1479.00	31033.16
1480.00	30703.93
1481.00	30577.54
1482.00	30395.76
1483.00	30619.67
1484.00	30618.11
1485.00	30850.60
1486.00	30788.97
1487.00	31007.42
1488.00	30951.24
1489.00	30974.65
1490.00	30852.16
1491.00	30955.93
1492.00	30691.44
1493.00	30341.92
1494.00	29722.46
1495.00	29249.67
1496.00	28698.09
1497.00	28285.37
1498.00	28146.50
1499.00	28242.46
1500.00	28496.80
1501.00	28767.52
1502.00	28971.15
1503.00	28996.12
1504.00	29051.51
1505.00	29097.54
1506.00	29096.76
1507.00	29089.74
1508.00	28889.23
1509.00	28726.96
1510.00	28475.74
1511.00	28310.34
1512.00	28283.03
1513.00	28180.05
1514.00	28286.93
1515.00	28431.27
1516.00	28662.20
1517.00	28852.56
1518.00	28801.07
1519.00	28784.69
1520.00	28531.13
1521.00	28248.71
1522.00	27924.93
1523.00	27975.64
1524.00	28180.05
1525.00	28343.89
1526.00	28408.64
1527.00	28498.36
1528.00	28729.30
1529.00	28777.67
1530.00	28900.15
1531.00	28712.13
1532.00	28730.08
1533.00	28496.80
1534.00	28396.16
1535.00	28167.57
1536.00	28095.79
1537.00	28120.76
1538.00	28114.52
1539.00	28167.57
1540.00	28253.39
1541.00	28336.87
1542.00	28329.06
1543.00	28464.04
1544.00	28489.78
1545.00	28554.54
1546.00	28466.38
1547.00	28493.68
1548.00	28452.33
1549.00	28300.98
1550.00	28020.11
1551.00	27733.01
1552.00	27632.36
1553.00	27650.31
1554.00	27862.52
1555.00	27926.49
1556.00	28084.09
1557.00	27989.69
1558.00	28091.89
1559.00	28141.04
1560.00	28292.40
1561.00	28322.82
1562.00	28370.41
1563.00	28428.15
1564.00	28304.88
1565.00	28200.33
1566.00	28153.52
1567.00	28181.61
1568.00	28228.42
1569.00	28038.06
1570.00	28040.40
1571.00	27853.16
1572.00	27740.03
1573.00	27624.56
1574.00	27578.53
1575.00	27520.02
1576.00	27285.19
1577.00	27133.05
1578.00	27115.89
1579.00	26939.57
1580.00	26881.05
1581.00	26852.19
1582.00	26981.70
1583.00	26872.47
1584.00	26766.37
1585.00	26661.82
1586.00	26576.00
1587.00	26388.76
1588.00	26278.75
1589.00	26346.63
1590.00	26389.54
1591.00	26413.73
1592.00	26362.23
1593.00	26411.39
1594.00	26516.71
1595.00	26551.04
1596.00	26675.87
1597.00	26526.07
1598.00	26424.65
1599.00	26249.11
1600.00	26324.01
1601.00	26180.45
1602.00	26148.46
1603.00	25908.17
1604.00	26100.09
1605.00	26168.75
1606.00	26317.76
1607.00	26242.87
1608.00	26150.03
1609.00	26059.52
1610.00	26042.36
1611.00	25933.92
1612.00	25928.45
1613.00	25756.04
1614.00	25720.93
1615.00	25684.26
1616.00	25608.58
1617.00	25444.74
1618.00	25222.39
1619.00	25198.21
1620.00	25120.19
1621.00	24994.58
1622.00	24982.10
1623.00	24957.91
1624.00	24967.27
1625.00	24847.13
1626.00	24809.68
1627.00	24654.42
1628.00	24527.25
1629.00	24257.31
1630.00	24304.12
1631.00	24186.32
1632.00	24301.78
1633.00	24086.45
1634.00	24034.18
1635.00	23881.27
1636.00	23949.92
1637.00	24002.97
1638.00	24192.56
1639.00	24178.51
1640.00	23919.49
1641.00	23488.84
1642.00	23185.35
1643.00	23008.25
1644.00	22975.48
1645.00	23074.56
1646.00	23354.65
1647.00	23660.48
1648.00	24043.54
1649.00	24258.09
1650.00	24446.90
1651.00	24442.99
1652.00	24505.41
1653.00	24358.74
1654.00	24143.41
1655.00	23924.18
1656.00	23676.86
1657.00	23470.89
1658.00	23290.67
1659.00	23246.98
1660.00	23444.37
1661.00	23498.98
1662.00	23678.42
1663.00	23651.89
1664.00	23758.00
1665.00	23793.11
1666.00	23725.23
1667.00	23696.36
1668.00	23682.32
1669.00	23951.48
1670.00	23775.94
1671.00	23765.02
1672.00	23487.28
1673.00	23619.91
1674.00	23619.13
1675.00	23613.66
1676.00	23356.99
1677.00	23076.90
1678.00	22728.16
1679.00	22687.59
1680.00	22522.98
1681.00	22463.68
1682.00	22280.34
1683.00	22162.53
1684.00	21878.55
1685.00	21478.32
1686.00	20695.80
1687.00	19880.51
1688.00	18927.91
1689.00	18379.45
1690.00	18061.13
1691.00	18192.20
1692.00	18570.59
1693.00	19210.34
1694.00	19859.45
1695.00	20411.03
1696.00	20997.73
1697.00	21460.37
1698.00	21664.78
1699.00	21692.87
1700.00	21889.47
1701.00	22173.46
1702.00	22303.74
1703.00	22238.99
1704.00	22259.27
1705.00	22289.70
1706.00	22345.09
1707.00	22310.77
1708.00	22324.03
1709.00	22202.32
1710.00	22047.85
1711.00	22001.04
1712.00	21949.54
1713.00	22004.94
1714.00	21956.57
1715.00	22005.72
1716.00	22022.10
1717.00	21957.35
1718.00	21986.99
1719.00	22004.94
1720.00	22173.46
1721.00	22068.91
1722.00	22006.50
1723.00	21863.72
1724.00	21873.87
1725.00	21891.03
1726.00	21902.73
1727.00	21998.70
1728.00	21962.03
1729.00	21962.03
1730.00	21908.97
1731.00	21937.84
1732.00	21775.56
1733.00	21639.81
1734.00	21528.25
1735.00	21543.07
1736.00	21504.84
1737.00	21333.20
1738.00	21223.20
1739.00	21136.60
1740.00	20954.82
1741.00	20955.60
1742.00	20837.79
1743.00	20955.60
1744.00	20883.04
1745.00	20741.05
1746.00	20659.13
1747.00	20560.83
1748.00	20698.14
1749.00	20666.93
1750.00	20723.10
1751.00	20719.98
1752.00	20797.22
1753.00	20757.43
1754.00	20652.89
1755.00	20610.76
1756.00	20541.32
1757.00	20535.08
1758.00	20422.73
1759.00	20286.98
1760.00	20171.52
1761.00	20048.25
1762.00	20055.27
1763.00	20050.59
1764.00	20039.67
1765.00	20028.74
1766.00	20111.44
1767.00	20034.99
1768.00	19895.33
1769.00	19734.62
1770.00	19761.14
1771.00	19797.03
1772.00	19797.81
1773.00	19803.27
1774.00	19796.25
1775.00	19751.78
1776.00	19741.64
1777.00	19818.88
1778.00	19832.92
1779.00	19755.68
1780.00	19625.39
1781.00	19424.89
1782.00	19388.22
1783.00	19346.87
1784.00	19357.01
1785.00	19315.66
1786.00	19126.08
1787.00	19089.41
1788.00	18924.79
1789.00	18942.74
1790.00	18805.42
1791.00	18823.37
1792.00	18853.02
1793.00	18815.57
1794.00	18736.77
1795.00	18634.57
1796.00	18586.97
1797.00	18454.34
1798.00	18313.91
1799.00	18272.56
1800.00	18178.16
1801.00	18195.32
1802.00	18168.02
1803.00	18224.97
1804.00	18074.40
1805.00	18002.62
1806.00	18038.51
1807.00	18054.11
1808.00	18046.31
1809.00	18047.87
1810.00	18029.15
1811.00	17951.91
1812.00	17838.00
1813.00	17761.55
1814.00	17729.56
1815.00	17543.10
1816.00	17468.20
1817.00	17401.10
1818.00	17436.99
1819.00	17495.50
1820.00	17453.37
1821.00	17422.95
1822.00	17359.75
1823.00	17292.66
1824.00	17302.80
1825.00	17250.53
1826.00	17224.78
1827.00	17259.89
1828.00	17311.38
1829.00	17297.34
1830.00	16981.37
1831.00	16837.81
1832.00	16734.83
1833.00	16897.89
1834.00	16769.16
1835.00	16681.00
1836.00	16461.77
1837.00	16486.73
1838.00	16589.72
1839.00	16629.51
1840.00	16585.04
1841.00	16513.26
1842.00	16484.39
1843.00	16455.53
1844.00	16304.95
1845.00	16187.93
1846.00	16024.09
1847.00	15991.32
1848.00	15895.36
1849.00	15836.84
1850.00	15821.24
1851.00	15807.20
1852.00	15815.00
1853.00	15821.24
1854.00	15808.76
1855.00	15687.83
1856.00	15548.18
1857.00	15458.46
1858.00	15394.48
1859.00	15431.15
1860.00	15358.60
1861.00	15416.33
1862.00	15280.58
1863.00	15245.47
1864.00	15094.90
1865.00	14984.11
1866.00	14903.75
1867.00	14853.04
1868.00	14855.38
1869.00	14821.83
1870.00	14822.61
1871.00	14798.43
1872.00	14814.81
1873.00	14822.61
1874.00	14838.22
1875.00	14732.11
1876.00	14638.49
1877.00	14462.17
1878.00	14395.07
1879.00	14331.88
1880.00	14356.85
1881.00	14277.27
1882.00	14260.88
1883.00	14173.50
1884.00	14185.21
1885.00	13997.96
1886.00	13842.71
1887.00	13631.28
1888.00	13550.92
1889.00	13459.64
1890.00	13442.48
1891.00	13456.52
1892.00	13557.94
1893.00	13618.80
1894.00	13701.50
1895.00	13647.66
1896.00	13551.70
1897.00	13327.01
1898.00	13169.41
1899.00	13127.28
1900.00	13109.34
1901.00	13063.31
1902.00	12956.43
1903.00	12766.84
1904.00	12381.43
1905.00	11742.47
1906.00	10817.18
1907.00	9916.85
1908.00	9087.52
1909.00	8532.81
1910.00	8179.39
1911.00	8021.80
1912.00	8064.71
1913.00	8257.41
1914.00	8571.04
1915.00	9089.86
1916.00	9571.23
1917.00	9980.04
1918.00	10114.24
1919.00	10098.63
1920.00	10008.91
1921.00	9874.72
1922.00	9776.42
1923.00	9657.83
1924.00	9586.83
1925.00	9554.07
1926.00	9568.89
1927.00	9531.44
1928.00	9566.55
1929.00	9604.78
1930.00	9677.34
1931.00	9757.69
1932.00	9827.13
1933.00	10003.45
1934.00	10015.93
1935.00	10097.85
1936.00	10056.50
1937.00	10161.83
1938.00	10182.89
1939.00	10283.53
1940.00	10271.83
1941.00	10261.69
1942.00	10186.79
1943.00	10200.05
1944.00	10185.23
1945.00	10142.32
1946.00	10058.06
1947.00	10044.80
1948.00	10133.74
1949.00	10084.59
1950.00	10094.73
1951.00	10035.44
1952.00	10055.72
1953.00	10018.27
1954.00	9934.01
1955.00	9823.23
1956.00	9708.54
1957.00	9643.01
1958.00	9618.04
1959.00	9575.13
1960.00	9531.44
1961.00	9414.41
1962.00	9334.06
1963.00	9274.76
1964.00	9349.66
1965.00	9371.50
1966.00	9383.99
1967.00	9383.99
1968.00	9314.55
1969.00	9216.25
1970.00	9157.74
1971.00	9190.50
1972.00	9245.12
1973.00	9206.89
1974.00	9146.03
1975.00	9109.36
1976.00	9102.34
1977.00	9174.12
1978.00	9188.16
1979.00	9188.94
1980.00	9149.15
1981.00	9188.16
1982.00	9243.56
1983.00	9235.75
1984.00	9266.18
1985.00	9266.18
1986.00	9277.10
1987.00	9078.94
1988.00	8876.09
1989.00	8716.16
1990.00	8718.50
1991.00	8675.59
1992.00	8543.74
1993.00	8407.20
1994.00	8398.62
1995.00	8379.90
1996.00	8324.51
1997.00	8200.46
1998.00	8216.06
1999.00	8109.96
2000.00	8087.33
2001.00	8007.75
2002.00	8116.98
2003.00	8081.87
2004.00	8010.87
2005.00	7871.22
2006.00	7786.96
2007.00	7725.33
2008.00	7637.17
2009.00	7609.08
2010.00	7598.94
2011.00	7614.54
2012.00	7636.39
2013.00	7607.52
2014.00	7612.98
2015.00	7532.62
2016.00	7513.90
2017.00	7466.31
2018.00	7416.38
2019.00	7387.51
2020.00	7398.43
2021.00	7388.29
2022.00	7315.73
2023.00	7187.79
2024.00	7128.49
2025.00	7137.07
2026.00	7146.44
2027.00	7139.41
2028.00	7117.57
2029.00	7179.20
2030.00	7208.85
2031.00	7223.67
2032.00	7218.21
2033.00	7197.15
2034.00	7170.62
2035.00	7052.03
2036.00	6995.08
2037.00	6963.09
2038.00	6929.55
2039.00	6970.12
2040.00	6947.49
2041.00	6995.86
2042.00	6981.04
2043.00	6950.61
2044.00	6840.61
2045.00	6771.95
2046.00	6726.70
2047.00	6703.29
>>>>>End Processed Spectral Data<<<<<
