SpectraSuite Data File
++++++++++++++++++++++++++++++++++++
Date: Thu Nov 16 13:32:53 EST 2017
User: cheriyan
Dark Spectrum Present: No
Reference Spectrum Present: No
Number of Sampled Component Spectra: 1
Spectrometers: USB2+H05261
Integration Time (usec): 90000 (USB2+H05261)
Spectra Averaged: 1 (USB2+H05261)
Boxcar Smoothing: 1 (USB2+H05261)
Correct for Electrical Dark: No (USB2+H05261)
Strobe/Lamp Enabled: No (USB2+H05261)
Correct for Detector Non-linearity: No (USB2+H05261)
Correct for Stray Light: No (USB2+H05261)
Number of Pixels in Processed Spectrum: 2048
>>>>>Begin Processed Spectral Data<<<<<
0.00	355.76
1.00	355.76
2.00	341.72
3.00	314.41
4.00	285.55
5.00	269.94
6.00	244.20
7.00	237.17
8.00	238.73
9.00	237.17
10.00	230.93
11.00	211.43
12.00	218.45
13.00	243.42
14.00	263.70
15.00	311.29
16.00	294.13
17.00	287.89
18.00	260.58
19.00	269.94
20.00	304.27
21.00	308.17
22.00	301.93
23.00	718.54
24.00	2325.71
25.00	4145.09
26.00	5527.57
27.00	5682.82
28.00	5501.82
29.00	5299.75
30.00	5077.40
31.00	5050.10
32.00	5103.15
33.00	5222.52
34.00	5218.61
35.00	5036.05
36.00	4823.84
37.00	4638.16
38.00	4583.55
39.00	4669.37
40.00	4810.58
41.00	4890.94
42.00	4816.82
43.00	4707.60
44.00	4770.79
45.00	5000.94
46.00	5360.61
47.00	5575.16
48.00	5760.06
49.00	5753.82
50.00	5780.34
51.00	5778.00
52.00	5880.21
53.00	5978.51
54.00	6058.87
55.00	6206.32
56.00	6399.02
57.00	6640.88
58.00	6839.05
59.00	7087.92
60.00	7228.35
61.00	7287.65
62.00	7094.16
63.00	6888.98
64.00	6669.75
65.00	6467.68
66.00	6260.15
67.00	6025.32
68.00	5955.10
69.00	5927.02
70.00	6096.32
71.00	6349.09
72.00	6647.90
73.00	6856.21
74.00	6948.27
75.00	6940.47
76.00	6760.25
77.00	6468.46
78.00	6155.61
79.00	5921.56
80.00	5644.59
81.00	5380.11
82.00	5128.11
83.00	4936.97
84.00	4767.67
85.00	4620.22
86.00	4519.57
87.00	4515.67
88.00	4538.30
89.00	4625.68
90.00	4816.82
91.00	5101.59
92.00	5547.07
93.00	5965.25
94.00	6367.82
95.00	6564.42
96.00	6598.75
97.00	6517.61
98.00	6381.86
99.00	6258.59
100.00	6135.32
101.00	6148.59
102.00	6230.51
103.00	6420.87
104.00	6562.08
105.00	6620.60
106.00	6607.33
107.00	6557.40
108.00	6536.34
109.00	6535.56
110.00	6575.34
111.00	6633.08
112.00	6584.71
113.00	6548.04
114.00	6592.51
115.00	6804.72
116.00	7045.79
117.00	7341.48
118.00	7683.98
119.00	8111.52
120.00	8389.26
121.00	8518.77
122.00	8528.13
123.00	8535.15
124.00	8615.51
125.00	8792.61
126.00	9139.01
127.00	9431.58
128.00	9550.95
129.00	9470.59
130.00	9251.36
131.00	9008.72
132.00	8595.23
133.00	8159.89
134.00	7566.17
135.00	6956.07
136.00	6218.02
137.00	5530.69
138.00	4957.25
139.00	4755.97
140.00	4901.86
141.00	5422.24
142.00	6061.99
143.00	6859.33
144.00	7651.21
145.00	8387.70
146.00	8968.93
147.00	9444.06
148.00	9825.57
149.00	10027.64
150.00	10005.79
151.00	9771.74
152.00	9324.69
153.00	8562.46
154.00	7622.34
155.00	6652.58
156.00	6035.46
157.00	5815.45
158.00	6122.84
159.00	6793.01
160.00	7896.97
161.00	9041.49
162.00	10209.42
163.00	10978.67
164.00	11570.83
165.00	12063.12
166.00	12489.10
167.00	12852.66
168.00	13122.60
169.00	13355.88
170.00	13561.84
171.00	13613.34
172.00	13829.45
173.00	13937.11
174.00	14050.24
175.00	14151.66
176.00	14221.88
177.00	14322.52
178.00	14431.74
179.00	14705.59
180.00	14960.70
181.00	15126.10
182.00	15256.39
183.00	15441.29
184.00	15522.43
185.00	15505.27
186.00	15340.65
187.00	15300.08
188.00	15122.98
189.00	14964.61
190.00	14757.08
191.00	14944.32
192.00	15229.87
193.00	15573.92
194.00	15594.99
195.00	15351.57
196.00	15115.18
197.00	14966.95
198.00	15166.67
199.00	15194.76
200.00	15417.11
201.00	15418.67
202.00	15423.35
203.00	15245.47
204.00	15141.71
205.00	15000.49
206.00	14858.50
207.00	14888.15
208.00	15058.23
209.00	15340.65
210.00	15438.17
211.00	15424.91
212.00	15311.00
213.00	15399.16
214.00	15714.36
215.00	16059.98
216.00	16340.84
217.00	16673.98
218.00	16936.12
219.00	17292.66
220.00	17368.34
221.00	17355.07
222.00	16940.80
223.00	16381.41
224.00	15706.55
225.00	15187.74
226.00	14986.45
227.00	15179.93
228.00	15622.30
229.00	16120.05
230.00	16774.62
231.00	17372.24
232.00	17972.19
233.00	18283.48
234.00	18427.82
235.00	18442.64
236.00	18491.79
237.00	18503.50
238.00	18363.84
239.00	18245.26
240.00	18105.60
241.00	18131.35
242.00	18175.04
243.00	18260.86
244.00	18620.52
245.00	18785.92
246.00	18981.74
247.00	18822.59
248.00	18856.14
249.00	18750.03
250.00	18799.18
251.00	18814.79
252.00	18946.64
253.00	18973.94
254.00	19035.58
255.00	19353.11
256.00	19722.13
257.00	20048.25
258.00	20192.58
259.00	20322.87
260.00	20233.15
261.00	20006.90
262.00	19600.43
263.00	19275.09
264.00	19097.99
265.00	19129.98
266.00	19238.42
267.00	19486.52
268.00	19619.93
269.00	19850.86
270.00	19825.90
271.00	19911.72
272.00	20076.34
273.00	20384.51
274.00	20436.00
275.00	20313.51
276.00	19993.64
277.00	19744.76
278.00	19516.17
279.00	19694.83
280.00	20143.43
281.00	20787.86
282.00	21268.45
283.00	21628.11
284.00	21678.04
285.00	21617.19
286.00	21533.71
287.00	21368.31
288.00	21062.48
289.00	20560.05
290.00	20023.28
291.00	19506.80
292.00	19264.95
293.00	19410.84
294.00	19813.42
295.00	20211.31
296.00	20471.11
297.00	20524.16
298.00	20528.06
299.00	20503.87
300.00	20624.80
301.00	20431.32
302.00	20377.48
303.00	20265.92
304.00	20344.72
305.00	20271.38
306.00	20094.28
307.00	19954.63
308.00	19878.17
309.00	19847.74
310.00	20036.55
311.00	20301.81
312.00	20363.44
313.00	20283.86
314.00	19668.30
315.00	19195.51
316.00	18760.95
317.00	18849.11
318.00	19186.15
319.00	19535.67
320.00	19833.70
321.00	19811.07
322.00	19749.44
323.00	19482.62
324.00	19347.65
325.00	19147.92
326.00	19181.47
327.00	19024.65
328.00	18503.50
329.00	17650.76
330.00	16737.95
331.00	15903.94
332.00	15195.54
333.00	14661.90
334.00	14484.02
335.00	14719.63
336.00	15343.77
337.00	16587.38
338.00	18296.75
339.00	20130.95
340.00	21545.41
341.00	22202.32
342.00	21953.44
343.00	21320.72
344.00	20644.31
345.00	20708.28
346.00	21186.53
347.00	21916.78
348.00	22313.11
349.00	22138.35
350.00	21404.20
351.00	20425.86
352.00	19737.74
353.00	19704.19
354.00	20231.59
355.00	20989.14
356.00	21635.13
357.00	22035.36
358.00	22104.80
359.00	22278.78
360.00	22548.72
361.00	23073.78
362.00	23459.97
363.00	23882.83
364.00	24187.88
365.00	24265.89
366.00	24184.76
367.00	23954.60
368.00	23739.27
369.00	23402.24
370.00	23221.24
371.00	22753.91
372.00	22590.07
373.00	22072.81
374.00	21675.70
375.00	21105.39
376.00	20826.09
377.00	20879.92
378.00	21364.41
379.00	21953.44
380.00	22720.36
381.00	23295.35
382.00	23892.19
383.00	24151.99
384.00	24059.15
385.00	23836.80
386.00	23569.19
387.00	23707.29
388.00	24022.48
389.00	24750.38
390.00	25385.45
391.00	25752.91
392.00	25919.87
393.00	26242.09
394.00	26672.74
395.00	27057.37
396.00	27101.84
397.00	27220.43
398.00	27435.76
399.00	27587.11
400.00	27555.13
401.00	27429.52
402.00	27388.95
403.00	27652.65
404.00	27904.65
405.00	28145.72
406.00	28183.17
407.00	28090.33
408.00	27754.85
409.00	27765.78
410.00	27988.91
411.00	28278.35
412.00	27789.18
413.00	26965.31
414.00	26139.10
415.00	25752.13
416.00	25661.63
417.00	25808.31
418.00	26173.43
419.00	26554.16
420.00	26960.63
421.00	27338.24
422.00	27892.16
423.00	28334.53
424.00	28708.23
425.00	28879.87
426.00	28790.15
427.00	28580.28
428.00	28376.66
429.00	28442.97
430.00	28437.51
431.00	28311.12
432.00	28237.00
433.00	28286.93
434.00	28473.40
435.00	28661.42
436.00	28890.01
437.00	29134.99
438.00	29296.49
439.00	29734.17
440.00	30268.59
441.00	30875.57
442.00	31034.72
443.00	30785.07
444.00	30604.06
445.00	30375.47
446.00	30204.61
447.00	30074.32
448.00	29919.07
449.00	29779.42
450.00	29560.19
451.00	29250.45
452.00	28752.70
453.00	27974.86
454.00	27494.27
455.00	27375.69
456.00	27733.79
457.00	28261.97
458.00	28785.47
459.00	29198.96
460.00	29532.10
461.00	29653.81
462.00	29780.20
463.00	29503.23
464.00	29387.77
465.00	29118.60
466.00	29192.72
467.00	29494.65
468.00	29707.64
469.00	30167.94
470.00	30602.50
471.00	31031.60
472.00	31089.34
473.00	30888.05
474.00	31044.87
475.00	31223.53
476.00	31621.42
477.00	31793.06
478.00	31982.64
479.00	31934.27
480.00	31488.79
481.00	31123.66
482.00	30693.79
483.00	30443.35
484.00	30447.25
485.00	30639.17
486.00	30955.93
487.00	30960.61
488.00	30997.27
489.00	30994.93
490.00	30847.48
491.00	30795.21
492.00	30827.20
493.00	30868.55
494.00	30916.92
495.00	30929.40
496.00	31318.71
497.00	31693.19
498.00	32002.14
499.00	32295.49
500.00	32176.12
501.00	32280.67
502.00	32212.01
503.00	32262.72
504.00	32599.76
505.00	32670.76
506.00	32932.12
507.00	33014.82
508.00	33061.63
509.00	32956.30
510.00	32755.80
511.00	32471.03
512.00	32297.83
513.00	32126.97
514.00	32141.02
515.00	32137.12
516.00	32012.29
517.00	31745.47
518.00	31480.99
519.00	31033.94
520.00	31341.33
521.00	31415.45
522.00	31742.35
523.00	31933.49
524.00	32298.61
525.00	32494.44
526.00	32108.25
527.00	31799.30
528.00	31168.91
529.00	30710.95
530.00	30280.29
531.00	30471.43
532.00	30803.79
533.00	31403.75
534.00	31585.53
535.00	31726.74
536.00	31239.13
537.00	31055.79
538.00	31073.73
539.00	31565.24
540.00	31796.96
541.00	31860.93
542.00	31755.61
543.00	31787.60
544.00	31718.94
545.00	31726.74
546.00	31524.68
547.00	31301.54
548.00	31021.46
549.00	30952.80
550.00	30853.72
551.00	30921.60
552.00	31066.71
553.00	31514.53
554.00	31794.62
555.00	32154.28
556.00	32488.20
557.00	33062.41
558.00	33643.64
559.00	34118.77
560.00	34309.91
561.00	34152.32
562.00	33586.69
563.00	33163.83
564.00	32790.91
565.00	32982.83
566.00	33253.55
567.00	33451.72
568.00	33664.71
569.00	33579.67
570.00	34021.25
571.00	34412.12
572.00	34788.94
573.00	34859.16
574.00	34834.19
575.00	34811.57
576.00	35059.66
577.00	35025.34
578.00	35110.38
579.00	34692.20
580.00	34435.52
581.00	34222.53
582.00	34196.79
583.00	34259.98
584.00	34558.79
585.00	35162.65
586.00	35905.38
587.00	36129.29
588.00	36303.27
589.00	36644.21
590.00	37117.00
591.00	37682.62
592.00	37922.92
593.00	38169.46
594.00	37896.39
595.00	37652.98
596.00	37521.13
597.00	37884.69
598.00	38498.69
599.00	39084.61
600.00	39605.77
601.00	39761.80
602.00	39754.78
603.00	39794.57
604.00	39879.61
605.00	40520.91
606.00	40591.91
607.00	40656.67
608.00	40617.66
609.00	40848.59
610.00	41273.79
611.00	41528.13
612.00	42118.72
613.00	42463.56
614.00	42720.24
615.00	42572.78
616.00	42421.43
617.00	42393.34
618.00	42407.39
619.00	42538.46
620.00	42683.57
621.00	43035.43
622.00	43264.80
623.00	43699.36
624.00	43615.88
625.00	43656.45
626.00	43298.35
627.00	43352.96
628.00	43480.91
629.00	43998.17
630.00	44344.57
631.00	44258.75
632.00	43484.81
633.00	42729.60
634.00	41476.63
635.00	39807.05
636.00	37919.80
637.00	37024.93
638.00	37322.96
639.00	38567.35
640.00	39824.22
641.00	40991.36
642.00	41762.18
643.00	42699.95
644.00	43522.26
645.00	44394.50
646.00	45138.79
647.00	45796.48
648.00	46515.03
649.00	46798.23
650.00	46731.14
651.00	46269.27
652.00	45872.16
653.00	45963.44
654.00	46415.16
655.00	47505.85
656.00	48562.22
657.00	49418.85
658.00	49771.49
659.00	50106.19
660.00	50291.09
661.00	50391.73
662.00	50234.92
663.00	50053.92
664.00	49955.61
665.00	49886.18
666.00	50015.69
667.00	49831.57
668.00	49359.56
669.00	48498.24
670.00	47993.47
671.00	48087.87
672.00	48751.80
673.00	49767.59
674.00	50638.27
675.00	51331.07
676.00	51596.33
677.00	51372.42
678.00	51074.39
679.00	50696.78
680.00	50841.12
681.00	51228.87
682.00	51951.31
683.00	52513.82
684.00	52967.10
685.00	53276.83
686.00	53613.87
687.00	53646.64
688.00	53371.24
689.00	52965.54
690.00	52683.12
691.00	52636.31
692.00	52679.22
693.00	53013.13
694.00	53404.78
695.00	53876.01
696.00	54009.42
697.00	53989.92
698.00	53985.24
699.00	54083.54
700.00	54334.76
701.00	54570.37
702.00	54556.33
703.00	54191.98
704.00	53439.11
705.00	52895.33
706.00	52711.99
707.00	52993.63
708.00	53509.33
709.00	53969.63
710.00	54407.31
711.00	54646.83
712.00	54816.91
713.00	54783.36
714.00	54689.74
715.00	54323.83
716.00	53859.63
717.00	53531.17
718.00	53199.60
719.00	53211.30
720.00	53202.72
721.00	53324.43
722.00	53135.62
723.00	52900.79
724.00	52820.43
725.00	52799.36
726.00	52862.56
727.00	53130.16
728.00	53426.63
729.00	53713.73
730.00	53872.89
731.00	54088.22
732.00	54260.64
733.00	54358.16
734.00	54292.63
735.00	54090.56
736.00	53620.89
737.00	53244.85
738.00	53040.44
739.00	53179.31
740.00	53404.78
741.00	53895.52
742.00	54176.38
743.00	54477.53
744.00	54534.48
745.00	54952.66
746.00	55324.02
747.00	55814.76
748.00	56040.23
749.00	56158.03
750.00	55952.07
751.00	55747.66
752.00	55599.43
753.00	55436.37
754.00	55287.35
755.00	55142.24
756.00	55079.05
757.00	54958.12
758.00	54811.45
759.00	54612.50
760.00	54326.95
761.00	54184.96
762.00	54269.22
763.00	54679.60
764.00	55128.20
765.00	55543.25
766.00	55936.46
767.00	56165.06
768.00	56194.70
769.00	56041.01
770.00	55842.84
771.00	55609.57
772.00	55540.13
773.00	55523.75
774.00	55644.68
775.00	55682.12
776.00	55646.24
777.00	55679.78
778.00	55709.43
779.00	55940.36
780.00	56126.83
781.00	56566.85
782.00	56765.01
783.00	56780.62
784.00	56445.92
785.00	56021.50
786.00	55704.75
787.00	55357.57
788.00	55356.79
789.00	55441.05
790.00	55539.35
791.00	55578.36
792.00	55491.76
793.00	55312.32
794.00	55173.45
795.00	54932.37
796.00	54925.35
797.00	54902.73
798.00	55140.68
799.00	55306.08
800.00	55388.00
801.00	55451.97
802.00	55552.62
803.00	55674.32
804.00	55850.64
805.00	56094.84
806.00	56166.62
807.00	55885.75
808.00	55118.84
809.00	54029.71
810.00	52700.28
811.00	51278.80
812.00	50142.86
813.00	49532.76
814.00	50186.55
815.00	51382.56
816.00	52894.55
817.00	53614.65
818.00	53712.95
819.00	53100.51
820.00	52349.98
821.00	52071.46
822.00	52317.21
823.00	53002.21
824.00	53624.79
825.00	54117.09
826.00	54516.54
827.00	54915.21
828.00	55332.60
829.00	55640.00
830.00	55878.73
831.00	55897.45
832.00	55871.71
833.00	55575.24
834.00	55459.77
835.00	55387.22
836.00	55654.82
837.00	55993.42
838.00	56261.02
839.00	56371.80
840.00	56344.50
841.00	56322.65
842.00	56306.27
843.00	56226.69
844.00	55873.27
845.00	55505.02
846.00	55153.94
847.00	55100.89
848.00	55084.51
849.00	55391.90
850.00	55700.07
851.00	56161.15
852.00	56454.50
853.00	56877.36
854.00	57109.07
855.00	57280.71
856.00	57122.33
857.00	57053.68
858.00	56798.56
859.00	56712.74
860.00	56528.62
861.00	56492.73
862.00	56594.93
863.00	56732.25
864.00	56623.80
865.00	56132.29
866.00	55270.97
867.00	54349.58
868.00	53351.73
869.00	52728.37
870.00	52343.74
871.00	52594.96
872.00	52973.34
873.00	53702.03
874.00	54417.46
875.00	55096.21
876.00	55528.43
877.00	55650.14
878.00	55784.33
879.00	56016.82
880.00	56314.07
881.00	56619.90
882.00	56867.22
883.00	57110.63
884.00	56942.89
885.00	56608.20
886.00	56105.76
887.00	55888.09
888.00	55770.28
889.00	55881.07
890.00	56116.68
891.00	56333.57
892.00	56701.04
893.00	56862.53
894.00	57022.47
895.00	56877.36
896.00	56800.12
897.00	56662.81
898.00	56518.48
899.00	56349.96
900.00	56061.29
901.00	55620.49
902.00	55045.50
903.00	54426.82
904.00	54154.54
905.00	54109.28
906.00	54376.89
907.00	54735.77
908.00	55075.15
909.00	55530.77
910.00	55649.36
911.00	55615.81
912.00	55334.17
913.00	55247.57
914.00	55250.69
915.00	55395.80
916.00	55405.94
917.00	55643.90
918.00	55838.94
919.00	56083.92
920.00	56245.41
921.00	56495.07
922.00	56687.77
923.00	56636.28
924.00	56307.05
925.00	56002.78
926.00	55667.30
927.00	55188.27
928.00	54642.93
929.00	54389.37
930.00	54458.80
931.00	54749.81
932.00	55064.22
933.00	55342.75
934.00	55488.64
935.00	55382.54
936.00	55409.06
937.00	55448.07
938.00	55448.07
939.00	55361.47
940.00	55258.49
941.00	54990.89
942.00	54781.80
943.00	54462.71
944.00	54322.27
945.00	54108.50
946.00	53998.50
947.00	53831.54
948.00	53615.43
949.00	53299.46
950.00	53208.18
951.00	53161.37
952.00	53095.05
953.00	53186.33
954.00	53340.03
955.00	53776.93
956.00	54008.64
957.00	54202.13
958.00	54370.64
959.00	54392.49
960.00	54294.97
961.00	54036.73
962.00	54080.42
963.00	54079.64
964.00	54194.32
965.00	54088.22
966.00	54109.28
967.00	54132.69
968.00	54308.23
969.00	54428.38
970.00	54731.09
971.00	54979.96
972.00	55172.67
973.00	54972.16
974.00	54757.61
975.00	54749.81
976.00	54721.72
977.00	54641.37
978.00	54522.78
979.00	54443.98
980.00	54391.71
981.00	54488.45
982.00	54538.38
983.00	54543.84
984.00	54344.90
985.00	54235.67
986.00	54169.36
987.00	54060.91
988.00	54126.45
989.00	53989.92
990.00	53920.48
991.00	53500.75
992.00	53249.53
993.00	53013.91
994.00	53117.68
995.00	53375.92
996.00	53620.11
997.00	53937.65
998.00	54149.85
999.00	54357.38
1000.00	54341.78
1001.00	54230.99
1002.00	54143.61
1003.00	54014.88
1004.00	54100.70
1005.00	54042.19
1006.00	53989.14
1007.00	53819.06
1008.00	53801.11
1009.00	53572.52
1010.00	53565.50
1011.00	53405.56
1012.00	53597.49
1013.00	53340.03
1014.00	53386.84
1015.00	53322.86
1016.00	53615.43
1017.00	53789.41
1018.00	54119.43
1019.00	54153.76
1020.00	54003.96
1021.00	53739.48
1022.00	53333.79
1023.00	52979.59
1024.00	52706.52
1025.00	52803.27
1026.00	53139.52
1027.00	53315.84
1028.00	53503.87
1029.00	53340.03
1030.00	53470.32
1031.00	53715.29
1032.00	53949.35
1033.00	54075.74
1034.00	53896.30
1035.00	53915.80
1036.00	53949.35
1037.00	53982.90
1038.00	53964.17
1039.00	53676.29
1040.00	53537.41
1041.00	53237.83
1042.00	53018.60
1043.00	52915.61
1044.00	52891.43
1045.00	52892.21
1046.00	52640.99
1047.00	52294.59
1048.00	52113.59
1049.00	51996.56
1050.00	52229.83
1051.00	52311.75
1052.00	52440.48
1053.00	52439.70
1054.00	52502.90
1055.00	52478.71
1056.00	52300.83
1057.00	51961.45
1058.00	51332.63
1059.00	50869.20
1060.00	50476.77
1061.00	50522.80
1062.00	50676.50
1063.00	50827.07
1064.00	50909.77
1065.00	50854.38
1066.00	50925.38
1067.00	50917.57
1068.00	50977.65
1069.00	51080.63
1070.00	51444.98
1071.00	51891.24
1072.00	52367.15
1073.00	52605.88
1074.00	52488.07
1075.00	52122.17
1076.00	51672.79
1077.00	51324.83
1078.00	51112.62
1079.00	50937.08
1080.00	50926.16
1081.00	51097.80
1082.00	51383.34
1083.00	51593.99
1084.00	51655.62
1085.00	51713.36
1086.00	51801.52
1087.00	51659.52
1088.00	51420.01
1089.00	51221.06
1090.00	51016.66
1091.00	50933.96
1092.00	50824.73
1093.00	50809.91
1094.00	50911.33
1095.00	50949.56
1096.00	51107.94
1097.00	51071.27
1098.00	50887.15
1099.00	50569.61
1100.00	50167.04
1101.00	49700.50
1102.00	49338.49
1103.00	49178.56
1104.00	49201.18
1105.00	49439.92
1106.00	49567.87
1107.00	49727.80
1108.00	49776.95
1109.00	49938.45
1110.00	50237.26
1111.00	50342.58
1112.00	50537.63
1113.00	50503.30
1114.00	50406.56
1115.00	49971.22
1116.00	49551.48
1117.00	49262.82
1118.00	48973.37
1119.00	48729.17
1120.00	48519.31
1121.00	48433.49
1122.00	48526.33
1123.00	48697.97
1124.00	48869.61
1125.00	48837.62
1126.00	48686.26
1127.00	48634.77
1128.00	48287.59
1129.00	48113.61
1130.00	47792.18
1131.00	47604.94
1132.00	47087.68
1133.00	46792.77
1134.00	46476.02
1135.00	46442.47
1136.00	46314.52
1137.00	46821.64
1138.00	47293.64
1139.00	47851.47
1140.00	48001.27
1141.00	48173.69
1142.00	48343.77
1143.00	48306.32
1144.00	48227.52
1145.00	48095.67
1146.00	48248.58
1147.00	48203.33
1148.00	48152.62
1149.00	48022.33
1150.00	47911.55
1151.00	47782.04
1152.00	47870.98
1153.00	47799.98
1154.00	47585.43
1155.00	47281.94
1156.00	46995.62
1157.00	47029.16
1158.00	46540.77
1159.00	46351.97
1160.00	45755.13
1161.00	45724.71
1162.00	45721.58
1163.00	45694.28
1164.00	45578.03
1165.00	45587.39
1166.00	45701.30
1167.00	46011.03
1168.00	46059.40
1169.00	46234.16
1170.00	46217.78
1171.00	46212.32
1172.00	46072.67
1173.00	45863.58
1174.00	45824.57
1175.00	45802.72
1176.00	45631.86
1177.00	45100.56
1178.00	44607.49
1179.00	44313.36
1180.00	44307.90
1181.00	44492.02
1182.00	44651.96
1183.00	44740.12
1184.00	44889.13
1185.00	45026.45
1186.00	45123.19
1187.00	45287.81
1188.00	45319.79
1189.00	45460.23
1190.00	45416.54
1191.00	45592.08
1192.00	45435.26
1193.00	45358.80
1194.00	45209.79
1195.00	45400.93
1196.00	45474.27
1197.00	45485.19
1198.00	45397.03
1199.00	45368.94
1200.00	45487.53
1201.00	45619.38
1202.00	45703.64
1203.00	45823.79
1204.00	46006.35
1205.00	46075.01
1206.00	46057.84
1207.00	46171.75
1208.00	46133.52
1209.00	46126.50
1210.00	45862.02
1211.00	45860.46
1212.00	45773.08
1213.00	45820.67
1214.00	45648.25
1215.00	45567.89
1216.00	45410.29
1217.00	45437.60
1218.00	45276.88
1219.00	45161.42
1220.00	44999.92
1221.00	44767.43
1222.00	44658.98
1223.00	44289.18
1224.00	43988.03
1225.00	43528.50
1226.00	43343.60
1227.00	43404.45
1228.00	43501.20
1229.00	43672.84
1230.00	43633.05
1231.00	43704.04
1232.00	43796.10
1233.00	43970.86
1234.00	44131.58
1235.00	44129.24
1236.00	44156.55
1237.00	43898.31
1238.00	43618.22
1239.00	43351.40
1240.00	43125.15
1241.00	42674.21
1242.00	41999.35
1243.00	40990.58
1244.00	39844.50
1245.00	38478.41
1246.00	37579.64
1247.00	37148.98
1248.00	36971.88
1249.00	37020.25
1250.00	37248.85
1251.00	38080.52
1252.00	38877.08
1253.00	39892.87
1254.00	40627.80
1255.00	41346.34
1256.00	41743.45
1257.00	42065.67
1258.00	42057.87
1259.00	41730.19
1260.00	41336.98
1261.00	41202.79
1262.00	41210.59
1263.00	41230.88
1264.00	41089.66
1265.00	41089.66
1266.00	41040.51
1267.00	41130.23
1268.00	41247.26
1269.00	41475.85
1270.00	41340.88
1271.00	41177.83
1272.00	41139.60
1273.00	41327.62
1274.00	41584.30
1275.00	41376.77
1276.00	41296.41
1277.00	40854.05
1278.00	40685.53
1279.00	40338.35
1280.00	40007.56
1281.00	39835.14
1282.00	39706.41
1283.00	39880.39
1284.00	39711.09
1285.00	39920.96
1286.00	40015.36
1287.00	40213.52
1288.00	40231.47
1289.00	40389.06
1290.00	40544.32
1291.00	40761.99
1292.00	40764.33
1293.00	40788.52
1294.00	40825.18
1295.00	40795.54
1296.00	40901.64
1297.00	40583.33
1298.00	40537.30
1299.00	40357.08
1300.00	40250.19
1301.00	40096.50
1302.00	39918.62
1303.00	39927.20
1304.00	39776.62
1305.00	39704.07
1306.00	39596.40
1307.00	39661.94
1308.00	39779.74
1309.00	39779.74
1310.00	39750.10
1311.00	39762.58
1312.00	40059.05
1313.00	40092.60
1314.00	39961.53
1315.00	39737.62
1316.00	39695.49
1317.00	39703.29
1318.00	39625.27
1319.00	39521.51
1320.00	39448.17
1321.00	39384.19
1322.00	39381.85
1323.00	39243.76
1324.00	39075.24
1325.00	39034.67
1326.00	38839.63
1327.00	38816.22
1328.00	38476.07
1329.00	38452.66
1330.00	38360.60
1331.00	38490.11
1332.00	38616.50
1333.00	38807.64
1334.00	39143.12
1335.00	39313.20
1336.00	39444.27
1337.00	39560.51
1338.00	39569.88
1339.00	39583.14
1340.00	39384.19
1341.00	39460.65
1342.00	39289.79
1343.00	39274.19
1344.00	39167.30
1345.00	39248.44
1346.00	39244.54
1347.00	39289.01
1348.00	39215.68
1349.00	38942.61
1350.00	38599.33
1351.00	38506.49
1352.00	38501.81
1353.00	38667.99
1354.00	38496.35
1355.00	38501.03
1356.00	38417.55
1357.00	38547.06
1358.00	38452.66
1359.00	38458.90
1360.00	38522.10
1361.00	38515.86
1362.00	38459.68
1363.00	38319.25
1364.00	38229.53
1365.00	38080.52
1366.00	37833.20
1367.00	37820.72
1368.00	37706.03
1369.00	37780.93
1370.00	37508.65
1371.00	37489.92
1372.00	37216.86
1373.00	37275.37
1374.00	37083.45
1375.00	37047.56
1376.00	37081.89
1377.00	36966.42
1378.00	37014.79
1379.00	36818.19
1380.00	36828.33
1381.00	36506.12
1382.00	36306.39
1383.00	36180.00
1384.00	36112.91
1385.00	36305.61
1386.00	36429.66
1387.00	36765.92
1388.00	36846.27
1389.00	36719.10
1390.00	36617.68
1391.00	36389.87
1392.00	36265.04
1393.00	35913.18
1394.00	35728.28
1395.00	35669.76
1396.00	35535.57
1397.00	35620.61
1398.00	35634.66
1399.00	35786.01
1400.00	35677.57
1401.00	35576.14
1402.00	35306.20
1403.00	35022.22
1404.00	34670.36
1405.00	34597.02
1406.00	34515.88
1407.00	34676.60
1408.00	34930.94
1409.00	35082.29
1410.00	35354.57
1411.00	35314.00
1412.00	35299.18
1413.00	35070.59
1414.00	35040.94
1415.00	34989.45
1416.00	34840.43
1417.00	34443.32
1418.00	34052.45
1419.00	33559.38
1420.00	33393.98
1421.00	33227.81
1422.00	33294.12
1423.00	33134.18
1424.00	33223.90
1425.00	33291.00
1426.00	33553.92
1427.00	33764.57
1428.00	34067.28
1429.00	34046.99
1430.00	34081.32
1431.00	34120.33
1432.00	34470.63
1433.00	34599.36
1434.00	34654.75
1435.00	34571.27
1436.00	34526.80
1437.00	34078.98
1438.00	33736.48
1439.00	33538.32
1440.00	33603.07
1441.00	33720.88
1442.00	33729.46
1443.00	33834.00
1444.00	33784.85
1445.00	33709.96
1446.00	33759.11
1447.00	33785.63
1448.00	33756.77
1449.00	33688.11
1450.00	33781.73
1451.00	33887.06
1452.00	33812.94
1453.00	33479.02
1454.00	33205.96
1455.00	32819.77
1456.00	32681.68
1457.00	32630.97
1458.00	32772.96
1459.00	32787.78
1460.00	32777.64
1461.00	32681.68
1462.00	32456.99
1463.00	32166.76
1464.00	32073.14
1465.00	32062.22
1466.00	31937.39
1467.00	31672.13
1468.00	31622.20
1469.00	31673.69
1470.00	31695.53
1471.00	31537.16
1472.00	31380.34
1473.00	31241.47
1474.00	31038.62
1475.00	30984.79
1476.00	30967.63
1477.00	31037.06
1478.00	30920.04
1479.00	30586.12
1480.00	30417.60
1481.00	30220.22
1482.00	30286.53
1483.00	30348.95
1484.00	30451.15
1485.00	30569.74
1486.00	30452.71
1487.00	30627.47
1488.00	30614.99
1489.00	30721.09
1490.00	30590.80
1491.00	30569.74
1492.00	30433.99
1493.00	30080.57
1494.00	29524.30
1495.00	28860.37
1496.00	28359.49
1497.00	27980.32
1498.00	27843.79
1499.00	27912.45
1500.00	28218.28
1501.00	28524.11
1502.00	28864.27
1503.00	29042.15
1504.00	29164.64
1505.00	29078.04
1506.00	28866.61
1507.00	28623.97
1508.00	28382.90
1509.00	28207.36
1510.00	28042.74
1511.00	27890.60
1512.00	27835.21
1513.00	27914.01
1514.00	28197.21
1515.00	28509.29
1516.00	28639.58
1517.00	28586.52
1518.00	28420.34
1519.00	28310.34
1520.00	28051.32
1521.00	27835.21
1522.00	27691.66
1523.00	27654.21
1524.00	27787.62
1525.00	28016.21
1526.00	28262.75
1527.00	28429.71
1528.00	28513.19
1529.00	28672.34
1530.00	28754.26
1531.00	28764.40
1532.00	28598.23
1533.00	28493.68
1534.00	28264.31
1535.00	28188.63
1536.00	27981.88
1537.00	27994.37
1538.00	28032.60
1539.00	28068.48
1540.00	28038.84
1541.00	28112.95
1542.00	28191.75
1543.00	28261.19
1544.00	28290.84
1545.00	28224.52
1546.00	28220.62
1547.00	28016.99
1548.00	28018.55
1549.00	27981.88
1550.00	27963.16
1551.00	27768.90
1552.00	27504.42
1553.00	27501.29
1554.00	27596.48
1555.00	27711.16
1556.00	27758.75
1557.00	27835.21
1558.00	27862.52
1559.00	27872.66
1560.00	27726.77
1561.00	27908.55
1562.00	27953.80
1563.00	28197.99
1564.00	28041.18
1565.00	27985.79
1566.00	27814.15
1567.00	27902.31
1568.00	27900.75
1569.00	27938.19
1570.00	27979.54
1571.00	27774.36
1572.00	27562.15
1573.00	27195.46
1574.00	27133.83
1575.00	27083.12
1576.00	26948.15
1577.00	26913.04
1578.00	26856.87
1579.00	26861.55
1580.00	26798.35
1581.00	26841.26
1582.00	26778.85
1583.00	26757.00
1584.00	26589.27
1585.00	26516.71
1586.00	26291.24
1587.00	26136.76
1588.00	26257.69
1589.00	26210.10
1590.00	26117.26
1591.00	25933.14
1592.00	26001.79
1593.00	26208.54
1594.00	26254.57
1595.00	26238.97
1596.00	26215.56
1597.00	26245.21
1598.00	26320.10
1599.00	26253.79
1600.00	26228.04
1601.00	26164.07
1602.00	26073.57
1603.00	25876.18
1604.00	25814.55
1605.00	25787.24
1606.00	25927.67
1607.00	25831.71
1608.00	26009.59
1609.00	25919.09
1610.00	25919.09
1611.00	25609.36
1612.00	25589.08
1613.00	25520.42
1614.00	25496.24
1615.00	25397.15
1616.00	25273.10
1617.00	25251.26
1618.00	25076.50
1619.00	24925.14
1620.00	24857.27
1621.00	24938.41
1622.00	24927.49
1623.00	24765.21
1624.00	24656.76
1625.00	24723.08
1626.00	24673.93
1627.00	24521.79
1628.00	24276.82
1629.00	24199.58
1630.00	24215.96
1631.00	24212.06
1632.00	24116.10
1633.00	24010.78
1634.00	23984.25
1635.00	23940.56
1636.00	23820.41
1637.00	23729.91
1638.00	23723.67
1639.00	23653.45
1640.00	23552.03
1641.00	23238.40
1642.00	22966.90
1643.00	22881.08
1644.00	22873.28
1645.00	23065.98
1646.00	23129.95
1647.00	23491.18
1648.00	23677.64
1649.00	23945.24
1650.00	24071.63
1651.00	24205.82
1652.00	24169.93
1653.00	24073.19
1654.00	23907.01
1655.00	23743.17
1656.00	23475.57
1657.00	23136.20
1658.00	22878.74
1659.00	22918.53
1660.00	23098.75
1661.00	23315.64
1662.00	23316.42
1663.00	23400.68
1664.00	23437.34
1665.00	23528.63
1666.00	23615.23
1667.00	23674.52
1668.00	23715.09
1669.00	23743.17
1670.00	23636.29
1671.00	23650.33
1672.00	23436.56
1673.00	23374.93
1674.00	23237.62
1675.00	23165.06
1676.00	23093.29
1677.00	22984.84
1678.00	22813.98
1679.00	22615.04
1680.00	22435.60
1681.00	22377.08
1682.00	22217.15
1683.00	21939.40
1684.00	21587.54
1685.00	21155.32
1686.00	20506.21
1687.00	19753.34
1688.00	18837.41
1689.00	18200.79
1690.00	17913.68
1691.00	18144.61
1692.00	18515.20
1693.00	19044.94
1694.00	19611.35
1695.00	20369.68
1696.00	20833.89
1697.00	21156.88
1698.00	21298.88
1699.00	21619.53
1700.00	21892.59
1701.00	22054.09
1702.00	22142.25
1703.00	22223.39
1704.00	22327.93
1705.00	22326.37
1706.00	22181.26
1707.00	22068.13
1708.00	21861.38
1709.00	21929.26
1710.00	21884.01
1711.00	21892.59
1712.00	21811.45
1713.00	21805.99
1714.00	21898.05
1715.00	22036.92
1716.00	22060.33
1717.00	22086.08
1718.00	21933.94
1719.00	21922.24
1720.00	21827.06
1721.00	21802.09
1722.00	21690.52
1723.00	21777.90
1724.00	21771.66
1725.00	21880.11
1726.00	21811.45
1727.00	21841.88
1728.00	21712.37
1729.00	21718.61
1730.00	21652.30
1731.00	21740.46
1732.00	21574.28
1733.00	21554.77
1734.00	21479.10
1735.00	21475.98
1736.00	21333.98
1737.00	21144.40
1738.00	20915.03
1739.00	20828.43
1740.00	20795.66
1741.00	20862.76
1742.00	20852.61
1743.00	20812.04
1744.00	20769.91
1745.00	20606.08
1746.00	20586.57
1747.00	20472.67
1748.00	20682.53
1749.00	20650.55
1750.00	20751.97
1751.00	20671.61
1752.00	20715.30
1753.00	20672.39
1754.00	20669.27
1755.00	20528.06
1756.00	20442.24
1757.00	20299.47
1758.00	20233.15
1759.00	20099.74
1760.00	20003.78
1761.00	20031.08
1762.00	20049.03
1763.00	20038.11
1764.00	19930.44
1765.00	19875.05
1766.00	19911.72
1767.00	19901.58
1768.00	19888.31
1769.00	19761.14
1770.00	19701.85
1771.00	19637.87
1772.00	19680.78
1773.00	19717.45
1774.00	19758.80
1775.00	19716.67
1776.00	19651.92
1777.00	19517.73
1778.00	19516.95
1779.00	19418.64
1780.00	19380.42
1781.00	19176.01
1782.00	19190.05
1783.00	19183.03
1784.00	19097.21
1785.00	18987.21
1786.00	18862.38
1787.00	18886.56
1788.00	18779.68
1789.00	18797.62
1790.00	18810.11
1791.00	18849.11
1792.00	18705.56
1793.00	18693.86
1794.00	18658.75
1795.00	18664.21
1796.00	18501.93
1797.00	18349.80
1798.00	18175.82
1799.00	18049.43
1800.00	18034.61
1801.00	18003.40
1802.00	17972.19
1803.00	18026.03
1804.00	18071.28
1805.00	17944.89
1806.00	17838.78
1807.00	17820.06
1808.00	17884.81
1809.00	17816.16
1810.00	17726.44
1811.00	17600.83
1812.00	17515.01
1813.00	17464.30
1814.00	17550.12
1815.00	17444.79
1816.00	17388.62
1817.00	17236.49
1818.00	17269.25
1819.00	17212.30
1820.00	17271.59
1821.00	17241.95
1822.00	17239.61
1823.00	17136.62
1824.00	17069.53
1825.00	17008.67
1826.00	17062.51
1827.00	16997.75
1828.00	17064.07
1829.00	16936.12
1830.00	16744.97
1831.00	16624.83
1832.00	16563.97
1833.00	16668.52
1834.00	16510.14
1835.00	16502.34
1836.00	16423.54
1837.00	16502.34
1838.00	16479.71
1839.00	16388.43
1840.00	16252.68
1841.00	16279.99
1842.00	16346.30
1843.00	16343.96
1844.00	16141.89
1845.00	16053.73
1846.00	15985.08
1847.00	16010.04
1848.00	15840.75
1849.00	15721.38
1850.00	15563.00
1851.00	15524.77
1852.00	15548.18
1853.00	15469.38
1854.00	15455.34
1855.00	15341.43
1856.00	15396.04
1857.00	15411.65
1858.00	15439.73
1859.00	15289.94
1860.00	15193.20
1861.00	15165.11
1862.00	15126.10
1863.00	15185.40
1864.00	15074.61
1865.00	15098.80
1866.00	14922.48
1867.00	14839.00
1868.00	14727.43
1869.00	14767.22
1870.00	14760.98
1871.00	14799.21
1872.00	14712.61
1873.00	14749.28
1874.00	14636.93
1875.00	14583.88
1876.00	14359.97
1877.00	14288.19
1878.00	14205.49
1879.00	14174.28
1880.00	14138.40
1881.00	14106.41
1882.00	14114.21
1883.00	14019.81
1884.00	13938.67
1885.00	13780.29
1886.00	13667.17
1887.00	13444.82
1888.00	13334.81
1889.00	13311.41
1890.00	13415.95
1891.00	13493.97
1892.00	13369.14
1893.00	13330.13
1894.00	13277.08
1895.00	13327.01
1896.00	13338.71
1897.00	13290.34
1898.00	13203.74
1899.00	13091.40
1900.00	13033.66
1901.00	13034.44
1902.00	12880.75
1903.00	12622.51
1904.00	12198.09
1905.00	11623.10
1906.00	10775.83
1907.00	9820.89
1908.00	9015.74
1909.00	8423.59
1910.00	8074.85
1911.00	7898.53
1912.00	7990.59
1913.00	8176.27
1914.00	8555.44
1915.00	8931.48
1916.00	9379.31
1917.00	9679.68
1918.00	9897.35
1919.00	10065.08
1920.00	10008.13
1921.00	9906.71
1922.00	9711.66
1923.00	9623.50
1924.00	9486.97
1925.00	9400.37
1926.00	9382.43
1927.00	9357.46
1928.00	9463.57
1929.00	9527.54
1930.00	9698.40
1931.00	9721.02
1932.00	9766.28
1933.00	9836.49
1934.00	9947.28
1935.00	10052.60
1936.00	10112.67
1937.00	10108.77
1938.00	10102.53
1939.00	10040.90
1940.00	10052.60
1941.00	10014.37
1942.00	10085.37
1943.00	10096.29
1944.00	10160.27
1945.00	10123.60
1946.00	10108.77
1947.00	10087.71
1948.00	10114.24
1949.00	10175.09
1950.00	10123.60
1951.00	10052.60
1952.00	9916.85
1953.00	9829.47
1954.00	9777.98
1955.00	9742.09
1956.00	9799.04
1957.00	9813.09
1958.00	9696.06
1959.00	9507.26
1960.00	9348.10
1961.00	9288.81
1962.00	9271.64
1963.00	9260.72
1964.00	9201.43
1965.00	9117.17
1966.00	9078.94
1967.00	9071.92
1968.00	9101.56
1969.00	9048.51
1970.00	9062.55
1971.00	9077.38
1972.00	9048.51
1973.00	9026.67
1974.00	8977.51
1975.00	8998.58
1976.00	8973.61
1977.00	9019.64
1978.00	9135.11
1979.00	9250.58
1980.00	9302.07
1981.00	9174.12
1982.00	9129.65
1983.00	9061.77
1984.00	9108.58
1985.00	9060.99
1986.00	8927.58
1987.00	8821.48
1988.00	8720.06
1989.00	8693.53
1990.00	8633.46
1991.00	8583.52
1992.00	8571.04
1993.00	8466.50
1994.00	8435.29
1995.00	8312.80
1996.00	8254.29
1997.00	8094.35
1998.00	8098.25
1999.00	8083.43
2000.00	8091.23
2001.00	8058.46
2002.00	8075.63
2003.00	8013.99
2004.00	7931.30
2005.00	7891.51
2006.00	7868.10
2007.00	7876.68
2008.00	7786.18
2009.00	7726.11
2010.00	7635.61
2011.00	7609.08
2012.00	7559.93
2013.00	7545.89
2014.00	7498.30
2015.00	7502.98
2016.00	7482.69
2017.00	7450.71
2018.00	7386.73
2019.00	7344.60
2020.00	7285.31
2021.00	7298.57
2022.00	7241.62
2023.00	7214.31
2024.00	7159.70
2025.00	7111.33
2026.00	7076.22
2027.00	7126.15
2028.00	7148.00
2029.00	7211.97
2030.00	7221.33
2031.00	7158.14
2032.00	7136.29
2033.00	7073.10
2034.00	7129.27
2035.00	7069.98
2036.00	7034.87
2037.00	6965.43
2038.00	7020.05
2039.00	6974.02
2040.00	6933.45
2041.00	6889.76
2042.00	6924.86
2043.00	6931.11
2044.00	6820.32
2045.00	6702.51
2046.00	6706.42
2047.00	6827.34
>>>>>End Processed Spectral Data<<<<<
