SpectraSuite Data File
++++++++++++++++++++++++++++++++++++
Date: Thu Nov 16 13:32:51 EST 2017
User: cheriyan
Dark Spectrum Present: No
Reference Spectrum Present: No
Number of Sampled Component Spectra: 1
Spectrometers: USB2+H05261
Integration Time (usec): 90000 (USB2+H05261)
Spectra Averaged: 1 (USB2+H05261)
Boxcar Smoothing: 1 (USB2+H05261)
Correct for Electrical Dark: No (USB2+H05261)
Strobe/Lamp Enabled: No (USB2+H05261)
Correct for Detector Non-linearity: No (USB2+H05261)
Correct for Stray Light: No (USB2+H05261)
Number of Pixels in Processed Spectrum: 2048
>>>>>Begin Processed Spectral Data<<<<<
0.00	372.15
1.00	372.15
2.00	340.94
3.00	308.95
4.00	276.96
5.00	266.04
6.00	249.66
7.00	233.27
8.00	254.34
9.00	275.40
10.00	273.06
11.00	253.56
12.00	241.86
13.00	243.42
14.00	234.05
15.00	233.27
16.00	247.32
17.00	247.32
18.00	241.08
19.00	245.76
20.00	288.67
21.00	340.16
22.00	383.85
23.00	832.45
24.00	2429.48
25.00	4145.87
26.00	5500.26
27.00	5639.91
28.00	5591.54
29.00	5401.18
30.00	5203.79
31.00	5100.03
32.00	5114.85
33.00	5195.21
34.00	5196.77
35.00	5040.73
36.00	4812.14
37.00	4631.14
38.00	4607.73
39.00	4702.92
40.00	4856.61
41.00	4901.86
42.00	4834.77
43.00	4730.22
44.00	4794.98
45.00	5075.84
46.00	5408.98
47.00	5721.83
48.00	5860.70
49.00	5942.62
50.00	5823.25
51.00	5746.80
52.00	5735.87
53.00	5838.08
54.00	5980.85
55.00	6156.39
56.00	6406.83
57.00	6705.63
58.00	6930.33
59.00	7137.85
60.00	7295.45
61.00	7353.96
62.00	7296.23
63.00	7020.83
64.00	6764.15
65.00	6461.44
66.00	6282.78
67.00	6099.44
68.00	5990.99
69.00	6015.18
70.00	6196.18
71.00	6450.52
72.00	6690.03
73.00	6871.03
74.00	7051.25
75.00	6997.42
76.00	6811.74
77.00	6443.49
78.00	6144.69
79.00	5848.22
80.00	5618.85
81.00	5372.31
82.00	5119.53
83.00	4938.53
84.00	4752.85
85.00	4622.56
86.00	4513.33
87.00	4495.39
88.00	4535.18
89.00	4629.58
90.00	4865.19
91.00	5235.00
92.00	5646.15
93.00	6054.97
94.00	6367.04
95.00	6542.58
96.00	6571.44
97.00	6502.01
98.00	6399.02
99.00	6284.34
100.00	6177.45
101.00	6189.94
102.00	6270.30
103.00	6445.06
104.00	6574.56
105.00	6609.67
106.00	6562.86
107.00	6525.41
108.00	6534.78
109.00	6570.66
110.00	6577.69
111.00	6594.85
112.00	6581.59
113.00	6555.84
114.00	6575.34
115.00	6725.92
116.00	7034.87
117.00	7419.50
118.00	7759.66
119.00	8147.40
120.00	8361.95
121.00	8567.92
122.00	8521.89
123.00	8527.35
124.00	8522.67
125.00	8728.64
126.00	8992.34
127.00	9281.00
128.00	9421.44
129.00	9511.16
130.00	9405.05
131.00	9245.90
132.00	8881.55
133.00	8446.21
134.00	7804.13
135.00	7096.50
136.00	6250.79
137.00	5507.28
138.00	4833.21
139.00	4627.24
140.00	4773.91
141.00	5352.81
142.00	6073.69
143.00	6877.27
144.00	7716.75
145.00	8434.51
146.00	9054.75
147.00	9519.74
148.00	9909.05
149.00	10190.69
150.00	10209.42
151.00	9958.20
152.00	9341.08
153.00	8562.46
154.00	7679.30
155.00	6829.68
156.00	6137.66
157.00	5851.34
158.00	6080.71
159.00	6868.69
160.00	7935.98
161.00	9092.98
162.00	10227.36
163.00	11127.69
164.00	11862.62
165.00	12303.42
166.00	12736.42
167.00	12989.97
168.00	13313.75
169.00	13530.64
170.00	13702.28
171.00	13698.38
172.00	13676.53
173.00	13896.54
174.00	14043.21
175.00	14250.74
176.00	14278.83
177.00	14408.34
178.00	14534.73
179.00	14804.67
180.00	15073.05
181.00	15335.97
182.00	15341.43
183.00	15410.87
184.00	15421.79
185.00	15481.86
186.00	15466.26
187.00	15389.02
188.00	15229.09
189.00	14957.58
190.00	14912.33
191.00	15021.56
192.00	15349.23
193.00	15554.42
194.00	15612.15
195.00	15463.92
196.00	15197.88
197.00	14998.93
198.00	15076.95
199.00	15165.11
200.00	15435.83
201.00	15462.36
202.00	15487.32
203.00	15297.74
204.00	15082.41
205.00	14875.66
206.00	14737.57
207.00	14831.97
208.00	15062.13
209.00	15319.59
210.00	15424.91
211.00	15417.11
212.00	15303.98
213.00	15466.26
214.00	15750.24
215.00	16303.39
216.00	16572.55
217.00	16880.72
218.00	17028.18
219.00	17318.40
220.00	17397.98
221.00	17394.86
222.00	16998.53
223.00	16454.75
224.00	15810.32
225.00	15366.40
226.00	15173.69
227.00	15248.59
228.00	15515.41
229.00	15973.38
230.00	16664.61
231.00	17369.12
232.00	17827.86
233.00	18065.82
234.00	18178.16
235.00	18402.85
236.00	18523.00
237.00	18663.43
238.00	18558.11
239.00	18422.36
240.00	18227.31
241.00	18103.26
242.00	18108.72
243.00	18189.08
244.00	18546.41
245.00	18824.93
246.00	19023.87
247.00	18964.58
248.00	18868.62
249.00	18842.87
250.00	19020.75
251.00	19164.31
252.00	19191.61
253.00	18990.33
254.00	19013.73
255.00	19320.34
256.00	19812.63
257.00	20215.21
258.00	20499.19
259.00	20620.12
260.00	20574.87
261.00	20308.83
262.00	19914.84
263.00	19499.00
264.00	19208.78
265.00	19160.41
266.00	19371.83
267.00	19573.12
268.00	19697.95
269.00	19603.55
270.00	19699.51
271.00	19775.19
272.00	20119.24
273.00	20272.94
274.00	20362.66
275.00	20184.00
276.00	19884.41
277.00	19636.31
278.00	19530.21
279.00	19712.77
280.00	20279.96
281.00	20821.41
282.00	21229.44
283.00	21521.23
284.00	21620.31
285.00	21760.74
286.00	21628.89
287.00	21405.76
288.00	21046.10
289.00	20519.48
290.00	20043.57
291.00	19564.54
292.00	19327.36
293.00	19548.93
294.00	19967.89
295.00	20292.44
296.00	20418.83
297.00	20355.64
298.00	20461.74
299.00	20467.98
300.00	20613.88
301.00	20408.69
302.00	20379.82
303.00	20319.75
304.00	20407.13
305.00	20348.62
306.00	20215.21
307.00	20155.91
308.00	20039.67
309.00	19836.04
310.00	19996.76
311.00	20242.51
312.00	20446.14
313.00	20269.04
314.00	19764.26
315.00	19243.10
316.00	18936.49
317.00	18923.23
318.00	19317.22
319.00	19424.11
320.00	19898.45
321.00	19929.66
322.00	19992.08
323.00	19671.42
324.00	19521.63
325.00	19373.39
326.00	19108.13
327.00	18821.03
328.00	18331.08
329.00	17678.85
330.00	16909.59
331.00	15932.81
332.00	15201.78
333.00	14608.06
334.00	14525.36
335.00	14707.15
336.00	15392.92
337.00	16625.61
338.00	18388.03
339.00	20256.56
340.00	21671.02
341.00	22245.23
342.00	21798.19
343.00	21237.24
344.00	20750.41
345.00	20989.14
346.00	21481.44
347.00	22193.74
348.00	22476.94
349.00	22371.62
350.00	21525.13
351.00	20503.09
352.00	19670.64
353.00	19651.92
354.00	20241.73
355.00	20986.80
356.00	21691.30
357.00	22123.52
358.00	22262.40
359.00	22472.26
360.00	22675.11
361.00	23156.48
362.00	23491.96
363.00	23982.69
364.00	24319.73
365.00	24301.78
366.00	24179.29
367.00	23854.74
368.00	23662.04
369.00	23233.72
370.00	23083.14
371.00	22747.67
372.00	22558.08
373.00	22120.40
374.00	21633.57
375.00	21143.62
376.00	20776.94
377.00	20926.73
378.00	21440.09
379.00	22216.36
380.00	22869.37
381.00	23406.14
382.00	23735.37
383.00	24102.06
384.00	23988.93
385.00	23689.34
386.00	23456.85
387.00	23696.36
388.00	24160.57
389.00	24722.30
390.00	25299.63
391.00	25819.23
392.00	26040.80
393.00	26323.22
394.00	26572.88
395.00	27008.22
396.00	27267.24
397.00	27655.77
398.00	27755.63
399.00	27869.54
400.00	27627.68
401.00	27605.06
402.00	27478.67
403.00	27760.31
404.00	27875.78
405.00	28107.49
406.00	28336.09
407.00	28285.37
408.00	27983.45
409.00	27810.25
410.00	28023.23
411.00	28253.39
412.00	27786.84
413.00	27072.20
414.00	26304.50
415.00	25942.50
416.00	25773.98
417.00	25873.06
418.00	26345.07
419.00	26686.79
420.00	27129.93
421.00	27484.13
422.00	28046.64
423.00	28480.42
424.00	28677.80
425.00	28875.97
426.00	28776.89
427.00	28634.11
428.00	28417.22
429.00	28425.81
430.00	28361.05
431.00	28226.86
432.00	28110.61
433.00	28194.87
434.00	28332.96
435.00	28507.73
436.00	28629.43
437.00	28924.34
438.00	29245.77
439.00	29773.95
440.00	30316.18
441.00	30911.46
442.00	31145.51
443.00	31152.53
444.00	30920.82
445.00	30692.22
446.00	30303.70
447.00	30144.54
448.00	30157.80
449.00	29982.26
450.00	29688.14
451.00	29095.20
452.00	28628.65
453.00	27943.66
454.00	27575.41
455.00	27523.92
456.00	27849.25
457.00	28262.75
458.00	28784.69
459.00	29247.33
460.00	29670.19
461.00	29731.05
462.00	29715.44
463.00	29450.96
464.00	29326.13
465.00	29234.07
466.00	29233.29
467.00	29461.10
468.00	29563.31
469.00	30002.55
470.00	30448.81
471.00	30927.84
472.00	31025.36
473.00	31000.40
474.00	31198.56
475.00	31415.45
476.00	31598.79
477.00	31848.45
478.00	31948.31
479.00	31934.27
480.00	31449.78
481.00	31115.86
482.00	30730.45
483.00	30519.81
484.00	30540.09
485.00	30625.91
486.00	30905.99
487.00	30910.68
488.00	30977.77
489.00	30813.15
490.00	30625.13
491.00	30650.88
492.00	30838.90
493.00	31050.33
494.00	30948.12
495.00	31094.80
496.00	31347.58
497.00	31882.78
498.00	32137.90
499.00	32304.07
500.00	32316.56
501.00	32384.43
502.00	32535.79
503.00	32634.87
504.00	32645.79
505.00	32593.52
506.00	32576.36
507.00	32912.61
508.00	33023.40
509.00	33098.30
510.00	32888.43
511.00	32733.17
512.00	32570.90
513.00	32355.57
514.00	32242.44
515.00	32225.28
516.00	31961.58
517.00	31829.73
518.00	31708.80
519.00	31551.98
520.00	31713.48
521.00	31627.66
522.00	31875.76
523.00	32077.04
524.00	32489.76
525.00	32623.17
526.00	32269.75
527.00	31772.77
528.00	31262.54
529.00	30765.56
530.00	30608.75
531.00	30696.13
532.00	31001.18
533.00	31213.38
534.00	31502.83
535.00	31782.91
536.00	31533.26
537.00	31269.56
538.00	31133.81
539.00	31480.21
540.00	31842.21
541.00	32009.95
542.00	32080.94
543.00	32110.59
544.00	32075.48
545.00	31993.56
546.00	31612.06
547.00	31315.59
548.00	31040.96
549.00	31069.05
550.00	31173.60
551.00	31281.26
552.00	31347.58
553.00	31385.80
554.00	31582.41
555.00	32098.11
556.00	32659.84
557.00	33413.49
558.00	33974.44
559.00	34365.31
560.00	34426.94
561.00	34134.37
562.00	33606.19
563.00	33197.38
564.00	32842.40
565.00	33147.45
566.00	33280.08
567.00	33355.75
568.00	33415.83
569.00	33384.62
570.00	33929.97
571.00	34382.47
572.00	34841.21
573.00	34874.76
574.00	34757.74
575.00	34809.23
576.00	34959.02
577.00	34829.51
578.00	35007.39
579.00	34813.91
580.00	34862.28
581.00	34463.61
582.00	34458.15
583.00	34461.27
584.00	34833.41
585.00	35238.33
586.00	35778.99
587.00	36136.31
588.00	36454.62
589.00	36877.48
590.00	37255.87
591.00	37746.60
592.00	38089.10
593.00	38244.35
594.00	38154.63
595.00	37755.18
596.00	37724.75
597.00	37890.15
598.00	38429.26
599.00	39137.66
600.00	39777.40
601.00	39936.56
602.00	39853.08
603.00	39782.87
604.00	40140.19
605.00	40467.08
606.00	40502.97
607.00	40592.69
608.00	40627.02
609.00	41031.93
610.00	41375.21
611.00	41702.10
612.00	42019.64
613.00	42386.32
614.00	42575.12
615.00	42590.73
616.00	42435.47
617.00	42586.83
618.00	42869.25
619.00	43040.11
620.00	43131.39
621.00	43189.91
622.00	43409.92
623.00	43823.41
624.00	43775.82
625.00	43779.72
626.00	43462.97
627.00	43629.15
628.00	43675.96
629.00	44124.56
630.00	44445.21
631.00	44394.50
632.00	43470.77
633.00	42496.33
634.00	41104.49
635.00	39579.24
636.00	37906.54
637.00	37262.89
638.00	37587.44
639.00	38625.08
640.00	39794.57
641.00	40975.76
642.00	41856.58
643.00	42646.12
644.00	43565.17
645.00	44387.48
646.00	45323.69
647.00	46035.22
648.00	46763.90
649.00	47146.19
650.00	47024.48
651.00	46690.57
652.00	45956.42
653.00	45915.07
654.00	46304.38
655.00	47533.94
656.00	48490.44
657.00	49544.46
658.00	49909.58
659.00	50349.60
660.00	50255.20
661.00	50254.42
662.00	50153.00
663.00	50048.46
664.00	50004.77
665.00	49856.53
666.00	49840.15
667.00	49663.83
668.00	49304.95
669.00	48764.28
670.00	48328.16
671.00	48269.65
672.00	48764.28
673.00	49607.65
674.00	50640.61
675.00	51308.44
676.00	51530.79
677.00	51337.31
678.00	50862.18
679.00	50803.67
680.00	50841.90
681.00	51343.55
682.00	51814.00
683.00	52521.62
684.00	53113.00
685.00	53500.75
686.00	53670.04
687.00	53794.09
688.00	53643.52
689.00	53334.57
690.00	52806.39
691.00	52609.00
692.00	52658.93
693.00	53031.86
694.00	53543.66
695.00	53836.22
696.00	53937.65
697.00	53945.45
698.00	54182.62
699.00	54322.27
700.00	54497.81
701.00	54522.00
702.00	54507.96
703.00	54094.46
704.00	53537.41
705.00	52892.99
706.00	52704.96
707.00	52737.73
708.00	53274.49
709.00	53804.23
710.00	54273.12
711.00	54648.39
712.00	54764.63
713.00	54839.53
714.00	54667.11
715.00	54396.39
716.00	53893.18
717.00	53588.91
718.00	53303.36
719.00	53382.94
720.00	53301.02
721.00	53317.40
722.00	53131.72
723.00	52957.74
724.00	52840.71
725.00	52825.89
726.00	52962.42
727.00	53255.77
728.00	53534.29
729.00	53801.89
730.00	53951.69
731.00	54177.16
732.00	54416.68
733.00	54583.63
734.00	54573.49
735.00	54302.77
736.00	53781.61
737.00	53279.17
738.00	52990.51
739.00	53197.26
740.00	53556.92
741.00	54081.20
742.00	54337.88
743.00	54401.07
744.00	54502.49
745.00	54831.73
746.00	55398.14
747.00	55769.50
748.00	55987.17
749.00	56048.81
750.00	55970.79
751.00	55786.67
752.00	55668.08
753.00	55479.28
754.00	55448.85
755.00	55263.17
756.00	55249.91
757.00	54947.20
758.00	54723.29
759.00	54340.22
760.00	54227.09
761.00	54142.05
762.00	54357.38
763.00	54650.73
764.00	55107.91
765.00	55477.72
766.00	55871.71
767.00	56206.40
768.00	56363.22
769.00	56221.23
770.00	55958.31
771.00	55663.40
772.00	55680.56
773.00	55556.52
774.00	55564.32
775.00	55524.53
776.00	55584.60
777.00	55750.00
778.00	55767.94
779.00	56060.51
780.00	56262.58
781.00	56595.71
782.00	56731.46
783.00	56728.34
784.00	56498.19
785.00	56121.37
786.00	55771.85
787.00	55494.10
788.00	55381.76
789.00	55487.08
790.00	55553.40
791.00	55569.78
792.00	55468.36
793.00	55299.06
794.00	55184.37
795.00	54935.49
796.00	54963.58
797.00	54933.15
798.00	55156.28
799.00	55328.70
800.00	55490.20
801.00	55560.42
802.00	55645.46
803.00	55804.61
804.00	55952.85
805.00	56080.02
806.00	56087.04
807.00	55820.22
808.00	55162.53
809.00	54131.13
810.00	52832.91
811.00	51436.39
812.00	50211.51
813.00	49696.59
814.00	50169.38
815.00	51455.12
816.00	52896.11
817.00	53749.62
818.00	53806.58
819.00	53167.61
820.00	52454.53
821.00	52294.59
822.00	52606.66
823.00	53263.57
824.00	53722.32
825.00	54215.39
826.00	54468.17
827.00	54864.50
828.00	55266.29
829.00	55698.51
830.00	55889.65
831.00	55810.07
832.00	55743.76
833.00	55494.10
834.00	55504.24
835.00	55446.51
836.00	55793.69
837.00	55980.93
838.00	56218.89
839.00	56257.12
840.00	56329.67
841.00	56351.52
842.00	56355.42
843.00	56229.81
844.00	55931.00
845.00	55531.55
846.00	55226.50
847.00	55048.62
848.00	55125.08
849.00	55425.45
850.00	55892.77
851.00	56269.60
852.00	56589.47
853.00	56885.94
854.00	57110.63
855.00	57271.35
856.00	57256.53
857.00	57104.39
858.00	56866.44
859.00	56593.37
860.00	56559.83
861.00	56520.82
862.00	56755.65
863.00	56735.37
864.00	56573.87
865.00	56099.52
866.00	55308.42
867.00	54385.47
868.00	53334.57
869.00	52697.16
870.00	52375.73
871.00	52724.47
872.00	53250.31
873.00	54018.78
874.00	54654.63
875.00	55190.61
876.00	55600.99
877.00	55723.47
878.00	55908.38
879.00	56114.34
880.00	56436.56
881.00	56772.81
882.00	56970.98
883.00	57160.56
884.00	57076.30
885.00	56750.97
886.00	56331.23
887.00	55942.70
888.00	55870.93
889.00	55918.52
890.00	56179.88
891.00	56534.08
892.00	56861.75
893.00	57045.88
894.00	57066.16
895.00	57052.90
896.00	56997.51
897.00	56785.30
898.00	56549.68
899.00	56438.90
900.00	56126.05
901.00	55741.42
902.00	55185.93
903.00	54681.94
904.00	54279.36
905.00	54179.50
906.00	54344.90
907.00	54685.84
908.00	55025.99
909.00	55540.91
910.00	55763.26
911.00	55744.54
912.00	55423.11
913.00	55287.35
914.00	55174.23
915.00	55382.54
916.00	55432.47
917.00	55786.67
918.00	55931.78
919.00	56160.37
920.00	56361.66
921.00	56562.17
922.00	56769.69
923.00	56631.60
924.00	56410.81
925.00	55999.66
926.00	55597.87
927.00	55155.50
928.00	54708.46
929.00	54380.79
930.00	54273.90
931.00	54572.71
932.00	54987.77
933.00	55351.33
934.00	55474.60
935.00	55505.80
936.00	55522.19
937.00	55576.80
938.00	55537.01
939.00	55581.48
940.00	55458.99
941.00	55260.83
942.00	54913.65
943.00	54617.96
944.00	54440.08
945.00	54390.15
946.00	54290.29
947.00	54031.27
948.00	53691.11
949.00	53379.04
950.00	53288.54
951.00	53298.68
952.00	53186.33
953.00	53217.54
954.00	53303.36
955.00	53758.98
956.00	54116.31
957.00	54259.08
958.00	54395.61
959.00	54423.70
960.00	54348.02
961.00	54054.67
962.00	53986.80
963.00	54051.55
964.00	54135.81
965.00	54044.53
966.00	54026.59
967.00	54120.99
968.00	54270.00
969.00	54528.24
970.00	54893.36
971.00	55221.82
972.00	55263.17
973.00	55014.29
974.00	54777.12
975.00	54700.66
976.00	54696.76
977.00	54670.23
978.00	54494.69
979.00	54411.21
980.00	54252.84
981.00	54394.83
982.00	54404.97
983.00	54429.16
984.00	54365.18
985.00	54264.54
986.00	54299.65
987.00	54213.05
988.00	54376.11
989.00	54204.47
990.00	54106.16
991.00	53641.18
992.00	53460.18
993.00	53109.88
994.00	53281.52
995.00	53457.06
996.00	53856.51
997.00	54032.05
998.00	54116.31
999.00	54220.85
1000.00	54359.72
1001.00	54440.86
1002.00	54396.39
1003.00	54161.56
1004.00	54188.08
1005.00	54106.94
1006.00	54240.35
1007.00	53979.78
1008.00	53918.92
1009.00	53549.12
1010.00	53537.41
1011.00	53374.36
1012.00	53474.22
1013.00	53399.32
1014.00	53456.28
1015.00	53527.27
1016.00	53716.86
1017.00	54026.59
1018.00	54163.90
1019.00	54248.94
1020.00	54030.49
1021.00	53840.90
1022.00	53542.88
1023.00	53117.68
1024.00	52953.06
1025.00	52969.44
1026.00	53295.56
1027.00	53477.34
1028.00	53622.45
1029.00	53645.86
1030.00	53670.82
1031.00	53743.38
1032.00	53787.85
1033.00	53843.24
1034.00	53801.11
1035.00	53886.15
1036.00	53852.61
1037.00	53815.94
1038.00	53673.95
1039.00	53627.91
1040.00	53520.25
1041.00	53442.23
1042.00	53247.19
1043.00	53043.56
1044.00	52873.48
1045.00	52785.32
1046.00	52821.21
1047.00	52594.96
1048.00	52423.32
1049.00	52090.18
1050.00	52148.70
1051.00	52178.34
1052.00	52379.63
1053.00	52597.30
1054.00	52640.21
1055.00	52601.98
1056.00	52311.75
1057.00	51920.10
1058.00	51423.91
1059.00	50867.64
1060.00	50647.63
1061.00	50478.33
1062.00	50745.94
1063.00	50892.61
1064.00	51162.55
1065.00	51207.02
1066.00	51175.03
1067.00	51242.13
1068.00	51228.09
1069.00	51397.38
1070.00	51634.56
1071.00	52005.92
1072.00	52360.90
1073.00	52366.37
1074.00	52259.48
1075.00	51844.43
1076.00	51496.47
1077.00	51185.18
1078.00	51164.89
1079.00	51118.86
1080.00	51118.86
1081.00	51212.48
1082.00	51341.21
1083.00	51436.39
1084.00	51511.29
1085.00	51642.36
1086.00	51767.97
1087.00	51753.93
1088.00	51505.05
1089.00	51367.74
1090.00	51055.67
1091.00	51020.56
1092.00	50841.90
1093.00	50852.82
1094.00	50889.49
1095.00	50948.00
1096.00	51016.66
1097.00	50876.22
1098.00	50674.16
1099.00	50490.04
1100.00	50318.40
1101.00	50035.19
1102.00	49619.36
1103.00	49348.64
1104.00	49356.44
1105.00	49539.00
1106.00	49631.06
1107.00	49734.82
1108.00	49896.32
1109.00	50063.28
1110.00	50327.76
1111.00	50502.52
1112.00	50643.73
1113.00	50649.19
1114.00	50420.60
1115.00	50192.79
1116.00	49725.46
1117.00	49397.01
1118.00	48931.24
1119.00	48613.71
1120.00	48418.66
1121.00	48487.32
1122.00	48562.22
1123.00	48629.31
1124.00	48735.41
1125.00	48793.15
1126.00	48853.22
1127.00	48769.74
1128.00	48563.00
1129.00	48261.85
1130.00	47806.22
1131.00	47474.65
1132.00	47113.42
1133.00	46771.71
1134.00	46634.39
1135.00	46553.26
1136.00	46794.33
1137.00	47072.85
1138.00	47409.11
1139.00	47905.30
1140.00	48190.85
1141.00	48431.93
1142.00	48492.78
1143.00	48453.77
1144.00	48389.02
1145.00	48183.05
1146.00	48201.77
1147.00	48060.56
1148.00	48037.16
1149.00	47802.32
1150.00	47757.85
1151.00	47696.22
1152.00	47754.73
1153.00	47817.14
1154.00	47588.55
1155.00	47236.69
1156.00	47019.80
1157.00	46781.07
1158.00	46725.67
1159.00	46452.61
1160.00	46459.63
1161.00	46266.15
1162.00	46149.90
1163.00	45990.75
1164.00	45922.09
1165.00	45837.83
1166.00	45791.80
1167.00	45957.20
1168.00	46209.20
1169.00	46465.88
1170.00	46443.25
1171.00	46415.94
1172.00	46257.57
1173.00	46182.67
1174.00	45957.20
1175.00	45766.84
1176.00	45335.40
1177.00	44963.25
1178.00	44526.35
1179.00	44396.06
1180.00	44229.88
1181.00	44346.91
1182.00	44440.53
1183.00	44662.10
1184.00	44815.80
1185.00	45043.61
1186.00	45104.46
1187.00	45321.35
1188.00	45352.56
1189.00	45554.63
1190.00	45536.68
1191.00	45582.71
1192.00	45532.78
1193.00	45521.08
1194.00	45567.11
1195.00	45530.44
1196.00	45539.80
1197.00	45530.44
1198.00	45490.65
1199.00	45615.48
1200.00	45634.99
1201.00	45803.50
1202.00	45707.54
1203.00	45962.66
1204.00	46002.45
1205.00	46241.96
1206.00	46081.25
1207.00	46111.67
1208.00	45910.39
1209.00	45977.48
1210.00	46004.79
1211.00	45854.22
1212.00	45894.78
1213.00	45768.40
1214.00	45901.03
1215.00	45585.83
1216.00	45567.11
1217.00	45526.54
1218.00	45547.61
1219.00	45410.29
1220.00	45188.72
1221.00	44858.71
1222.00	44506.85
1223.00	44247.83
1224.00	43956.82
1225.00	43772.70
1226.00	43552.69
1227.00	43566.73
1228.00	43487.15
1229.00	43480.91
1230.00	43563.61
1231.00	43888.95
1232.00	44081.65
1233.00	44230.66
1234.00	43997.39
1235.00	43877.24
1236.00	43817.17
1237.00	43824.19
1238.00	43801.57
1239.00	43643.97
1240.00	43438.78
1241.00	42832.58
1242.00	42038.36
1243.00	40964.84
1244.00	39873.37
1245.00	38727.28
1246.00	37922.14
1247.00	37415.02
1248.00	37090.47
1249.00	37196.57
1250.00	37454.03
1251.00	38125.77
1252.00	38973.82
1253.00	39956.85
1254.00	40758.09
1255.00	41251.94
1256.00	41604.58
1257.00	41908.07
1258.00	41975.95
1259.00	41766.08
1260.00	41500.82
1261.00	41310.46
1262.00	41353.37
1263.00	41284.71
1264.00	41241.02
1265.00	41155.20
1266.00	41065.48
1267.00	41026.47
1268.00	41225.42
1269.00	41410.32
1270.00	41312.80
1271.00	41042.85
1272.00	41088.88
1273.00	41326.84
1274.00	41511.74
1275.00	41304.21
1276.00	41067.82
1277.00	40817.38
1278.00	40747.17
1279.00	40406.23
1280.00	40015.36
1281.00	39734.49
1282.00	39732.15
1283.00	39934.22
1284.00	39930.32
1285.00	40192.46
1286.00	40263.46
1287.00	40434.31
1288.00	40440.56
1289.00	40541.98
1290.00	40539.64
1291.00	40730.00
1292.00	40777.59
1293.00	40743.27
1294.00	40707.38
1295.00	40605.95
1296.00	40736.24
1297.00	40509.99
1298.00	40505.31
1299.00	40399.21
1300.00	40252.53
1301.00	39979.47
1302.00	39759.46
1303.00	39524.63
1304.00	39625.27
1305.00	39754.78
1306.00	39822.65
1307.00	39842.94
1308.00	39888.19
1309.00	40066.07
1310.00	40149.55
1311.00	40095.72
1312.00	40122.24
1313.00	39937.34
1314.00	39868.69
1315.00	39917.06
1316.00	39992.73
1317.00	39942.02
1318.00	39722.79
1319.00	39612.79
1320.00	39350.65
1321.00	39331.92
1322.00	39100.21
1323.00	39154.04
1324.00	39132.20
1325.00	39045.60
1326.00	38980.06
1327.00	38758.49
1328.00	38740.55
1329.00	38660.19
1330.00	38692.18
1331.00	38838.07
1332.00	38870.06
1333.00	39045.60
1334.00	39182.13
1335.00	39399.02
1336.00	39446.61
1337.00	39479.38
1338.00	39423.20
1339.00	39454.41
1340.00	39569.88
1341.00	39642.43
1342.00	39567.54
1343.00	39462.99
1344.00	39456.75
1345.00	39400.58
1346.00	39305.40
1347.00	39270.29
1348.00	39171.21
1349.00	39107.23
1350.00	38874.74
1351.00	38866.16
1352.00	38767.07
1353.00	38788.92
1354.00	38647.71
1355.00	38549.40
1356.00	38390.25
1357.00	38289.60
1358.00	38281.80
1359.00	38380.88
1360.00	38538.48
1361.00	38650.83
1362.00	38595.43
1363.00	38447.20
1364.00	38177.26
1365.00	38046.97
1366.00	37915.12
1367.00	37769.22
1368.00	37605.39
1369.00	37485.24
1370.00	37420.48
1371.00	37337.01
1372.00	37233.24
1373.00	37196.57
1374.00	37172.39
1375.00	37255.87
1376.00	37374.45
1377.00	37277.71
1378.00	37260.55
1379.00	36999.19
1380.00	36766.70
1381.00	36400.01
1382.00	36194.04
1383.00	36170.64
1384.00	36263.48
1385.00	36436.68
1386.00	36664.49
1387.00	36766.70
1388.00	36802.58
1389.00	36747.19
1390.00	36583.35
1391.00	36506.12
1392.00	36286.11
1393.00	36201.85
1394.00	35942.05
1395.00	35899.92
1396.00	35843.74
1397.00	35775.87
1398.00	35773.53
1399.00	35941.27
1400.00	36009.92
1401.00	35796.15
1402.00	35340.53
1403.00	34980.87
1404.00	34781.92
1405.00	34618.86
1406.00	34663.33
1407.00	34918.45
1408.00	35164.99
1409.00	35260.17
1410.00	35328.05
1411.00	35335.85
1412.00	35318.68
1413.00	35218.04
1414.00	35164.21
1415.00	35072.93
1416.00	34903.63
1417.00	34387.15
1418.00	33901.88
1419.00	33377.60
1420.00	33195.82
1421.00	33021.06
1422.00	33068.65
1423.00	33145.11
1424.00	33297.24
1425.00	33479.02
1426.00	33662.36
1427.00	33839.47
1428.00	33908.12
1429.00	33993.16
1430.00	34224.87
1431.00	34340.34
1432.00	34415.24
1433.00	34424.60
1434.00	34303.67
1435.00	34215.51
1436.00	34025.93
1437.00	33937.77
1438.00	33700.59
1439.00	33541.44
1440.00	33443.91
1441.00	33455.62
1442.00	33511.79
1443.00	33451.72
1444.00	33607.75
1445.00	33773.93
1446.00	33909.68
1447.00	33883.94
1448.00	33807.48
1449.00	33823.86
1450.00	33838.69
1451.00	33802.02
1452.00	33666.27
1453.00	33418.95
1454.00	33032.76
1455.00	32926.66
1456.00	32772.18
1457.00	32735.51
1458.00	32545.15
1459.00	32632.53
1460.00	32689.48
1461.00	32700.40
1462.00	32499.90
1463.00	32282.23
1464.00	32060.66
1465.00	31943.63
1466.00	31856.25
1467.00	31889.80
1468.00	31822.70
1469.00	31828.95
1470.00	31879.66
1471.00	31775.89
1472.00	31647.94
1473.00	31285.16
1474.00	31136.93
1475.00	30952.02
1476.00	30955.93
1477.00	30997.27
1478.00	31016.78
1479.00	30811.59
1480.00	30554.91
1481.00	30488.60
1482.00	30426.18
1483.00	30371.57
1484.00	30195.25
1485.00	30236.60
1486.00	30402.78
1487.00	30573.64
1488.00	30718.75
1489.00	30792.09
1490.00	30749.96
1491.00	30693.79
1492.00	30469.87
1493.00	30050.14
1494.00	29426.00
1495.00	28843.20
1496.00	28410.20
1497.00	28114.52
1498.00	27916.35
1499.00	28116.08
1500.00	28393.82
1501.00	28616.95
1502.00	28715.25
1503.00	28730.86
1504.00	28873.63
1505.00	28763.62
1506.00	28862.71
1507.00	28581.06
1508.00	28559.22
1509.00	28299.42
1510.00	28274.45
1511.00	28034.94
1512.00	28061.46
1513.00	28075.51
1514.00	28432.83
1515.00	28492.90
1516.00	28614.61
1517.00	28487.44
1518.00	28517.09
1519.00	28517.87
1520.00	28401.62
1521.00	28221.40
1522.00	28091.89
1523.00	28020.11
1524.00	28045.86
1525.00	28076.29
1526.00	28208.14
1527.00	28345.45
1528.00	28540.49
1529.00	28680.92
1530.00	28663.76
1531.00	28591.98
1532.00	28517.87
1533.00	28311.12
1534.00	28176.93
1535.00	28027.92
1536.00	28134.02
1537.00	28085.65
1538.00	28067.70
1539.00	27981.10
1540.00	28018.55
1541.00	28109.83
1542.00	28203.46
1543.00	28255.73
1544.00	28187.07
1545.00	28286.15
1546.00	28286.15
1547.00	28207.36
1548.00	28024.01
1549.00	27813.37
1550.00	27802.44
1551.00	27689.32
1552.00	27730.67
1553.00	27754.85
1554.00	27816.49
1555.00	27975.64
1556.00	27931.95
1557.00	27983.44
1558.00	28010.75
1559.00	28247.15
1560.00	28310.34
1561.00	28169.13
1562.00	28038.84
1563.00	28154.30
1564.00	28193.31
1565.00	28183.17
1566.00	27992.81
1567.00	28096.57
1568.00	27995.15
1569.00	27867.20
1570.00	27733.79
1571.00	27676.05
1572.00	27659.67
1573.00	27494.27
1574.00	27271.14
1575.00	27135.39
1576.00	26953.61
1577.00	26808.50
1578.00	26668.84
1579.00	26639.98
1580.00	26707.85
1581.00	26826.44
1582.00	26831.12
1583.00	26864.67
1584.00	26657.14
1585.00	26571.32
1586.00	26444.93
1587.00	26325.57
1588.00	26245.21
1589.00	26242.87
1590.00	26415.29
1591.00	26279.54
1592.00	26288.90
1593.00	26198.40
1594.00	26325.57
1595.00	26264.71
1596.00	26334.93
1597.00	26259.25
1598.00	26257.69
1599.00	26281.10
1600.00	26306.84
1601.00	26157.05
1602.00	26057.96
1603.00	26028.32
1604.00	25899.59
1605.00	25788.02
1606.00	25777.10
1607.00	26015.83
1608.00	25908.95
1609.00	25876.18
1610.00	25699.86
1611.00	25651.49
1612.00	25500.14
1613.00	25458.01
1614.00	25511.06
1615.00	25520.42
1616.00	25438.50
1617.00	25370.63
1618.00	25233.32
1619.00	25138.13
1620.00	25021.11
1621.00	24920.46
1622.00	25023.45
1623.00	24905.64
1624.00	24950.89
1625.00	24797.20
1626.00	24669.25
1627.00	24435.97
1628.00	24235.47
1629.00	24122.34
1630.00	24150.43
1631.00	24094.25
1632.00	24127.80
1633.00	23953.82
1634.00	23910.13
1635.00	23916.37
1636.00	24048.22
1637.00	24126.24
1638.00	24124.68
1639.00	24027.16
1640.00	23820.41
1641.00	23476.35
1642.00	23050.38
1643.00	22809.30
1644.00	22668.09
1645.00	22724.26
1646.00	22944.27
1647.00	23311.74
1648.00	23841.48
1649.00	24128.58
1650.00	24322.85
1651.00	24284.62
1652.00	24388.38
1653.00	24207.38
1654.00	24008.44
1655.00	23623.81
1656.00	23467.77
1657.00	23333.58
1658.00	23295.35
1659.00	23134.64
1660.00	23191.59
1661.00	23256.34
1662.00	23457.63
1663.00	23629.27
1664.00	23651.89
1665.00	23798.57
1666.00	23743.17
1667.00	23804.03
1668.00	23779.06
1669.00	23766.58
1670.00	23574.66
1671.00	23432.66
1672.00	23362.45
1673.00	23412.38
1674.00	23351.52
1675.00	23206.41
1676.00	23089.38
1677.00	22895.12
1678.00	22752.35
1679.00	22665.75
1680.00	22571.35
1681.00	22402.83
1682.00	22110.26
1683.00	21928.48
1684.00	21642.15
1685.00	21247.38
1686.00	20627.92
1687.00	19818.10
1688.00	18955.22
1689.00	18249.16
1690.00	18021.34
1691.00	18111.07
1692.00	18522.22
1693.00	19025.43
1694.00	19671.42
1695.00	20299.47
1696.00	20822.19
1697.00	21175.61
1698.00	21553.21
1699.00	21742.02
1700.00	21986.99
1701.00	21899.61
1702.00	22102.46
1703.00	22164.09
1704.00	22268.64
1705.00	22148.49
1706.00	22150.05
1707.00	22242.89
1708.00	22194.52
1709.00	22093.10
1710.00	21923.02
1711.00	21778.68
1712.00	21717.83
1713.00	21651.52
1714.00	21797.41
1715.00	21909.75
1716.00	21934.72
1717.00	22011.18
1718.00	21970.61
1719.00	21985.43
1720.00	21911.32
1721.00	21784.15
1722.00	21796.63
1723.00	21781.81
1724.00	21777.12
1725.00	21738.90
1726.00	21752.94
1727.00	21791.95
1728.00	21808.33
1729.00	21802.09
1730.00	21814.57
1731.00	21749.04
1732.00	21593.00
1733.00	21452.57
1734.00	21423.70
1735.00	21415.90
1736.00	21302.00
1737.00	21082.77
1738.00	20851.05
1739.00	20705.94
1740.00	20591.25
1741.00	20627.14
1742.00	20701.26
1743.00	20801.12
1744.00	20803.46
1745.00	20771.47
1746.00	20734.03
1747.00	20673.95
1748.00	20762.89
1749.00	20706.72
1750.00	20768.35
1751.00	20695.80
1752.00	20724.66
1753.00	20652.89
1754.00	20592.81
1755.00	20528.84
1756.00	20480.47
1757.00	20420.39
1758.00	20380.60
1759.00	20373.58
1760.00	20143.43
1761.00	19991.30
1762.00	19820.44
1763.00	19939.80
1764.00	19956.19
1765.00	20017.82
1766.00	19941.36
1767.00	19846.96
1768.00	19714.33
1769.00	19590.28
1770.00	19578.58
1771.00	19497.44
1772.00	19413.96
1773.00	19360.91
1774.00	19389.00
1775.00	19492.76
1776.00	19630.07
1777.00	19687.03
1778.00	19804.83
1779.00	19642.56
1780.00	19566.10
1781.00	19300.84
1782.00	19176.01
1783.00	19014.51
1784.00	18994.23
1785.00	18945.86
1786.00	18893.58
1787.00	18776.56
1788.00	18750.81
1789.00	18794.50
1790.00	18925.57
1791.00	18882.66
1792.00	18739.11
1793.00	18611.16
1794.00	18625.98
1795.00	18507.40
1796.00	18459.81
1797.00	18292.07
1798.00	18253.06
1799.00	18153.98
1800.00	18022.91
1801.00	18035.39
1802.00	17992.48
1803.00	18068.16
1804.00	18079.86
1805.00	18096.24
1806.00	18108.72
1807.00	18061.13
1808.00	17970.63
1809.00	17902.76
1810.00	17787.29
1811.00	17731.12
1812.00	17732.68
1813.00	17706.93
1814.00	17625.79
1815.00	17581.32
1816.00	17637.50
1817.00	17621.89
1818.00	17512.67
1819.00	17323.87
1820.00	17205.28
1821.00	17118.68
1822.00	17138.18
1823.00	17127.26
1824.00	17082.01
1825.00	17090.59
1826.00	17184.99
1827.00	17319.96
1828.00	17149.89
1829.00	17045.34
1830.00	16783.20
1831.00	16807.39
1832.00	16661.49
1833.00	16700.50
1834.00	16546.81
1835.00	16543.69
1836.00	16283.11
1837.00	16237.08
1838.00	16096.64
1839.00	16233.18
1840.00	16251.90
1841.00	16311.19
1842.00	16280.77
1843.00	16303.39
1844.00	16204.31
1845.00	16123.17
1846.00	15947.63
1847.00	15934.37
1848.00	15868.83
1849.00	15802.52
1850.00	15770.53
1851.00	15786.91
1852.00	15847.77
1853.00	15701.09
1854.00	15510.73
1855.00	15360.16
1856.00	15302.42
1857.00	15346.89
1858.00	15250.15
1859.00	15334.41
1860.00	15289.16
1861.00	15265.75
1862.00	15069.15
1863.00	14985.67
1864.00	14924.04
1865.00	14948.22
1866.00	14906.09
1867.00	14917.01
1868.00	14853.04
1869.00	14776.58
1870.00	14717.29
1871.00	14637.71
1872.00	14649.41
1873.00	14619.77
1874.00	14620.55
1875.00	14569.05
1876.00	14522.24
1877.00	14404.44
1878.00	14329.54
1879.00	14309.26
1880.00	14329.54
1881.00	14189.89
1882.00	14129.03
1883.00	14007.33
1884.00	14029.95
1885.00	13893.42
1886.00	13790.44
1887.00	13640.64
1888.00	13529.86
1889.00	13476.02
1890.00	13403.47
1891.00	13377.72
1892.00	13334.81
1893.00	13316.09
1894.00	13331.69
1895.00	13332.47
1896.00	13307.51
1897.00	13195.16
1898.00	13124.16
1899.00	13128.85
1900.00	13094.52
1901.00	13003.24
1902.00	12891.67
1903.00	12714.57
1904.00	12333.06
1905.00	11637.14
1906.00	10807.81
1907.00	9940.26
1908.00	9165.54
1909.00	8476.64
1910.00	8064.71
1911.00	7950.80
1912.00	7990.59
1913.00	8266.77
1914.00	8587.43
1915.00	9093.76
1916.00	9497.11
1917.00	9775.64
1918.00	9925.43
1919.00	9992.53
1920.00	10019.83
1921.00	9907.49
1922.00	9752.23
1923.00	9634.43
1924.00	9542.36
1925.00	9465.91
1926.00	9389.45
1927.00	9396.47
1928.00	9433.92
1929.00	9449.52
1930.00	9622.72
1931.00	9760.81
1932.00	9911.39
1933.00	9883.30
1934.00	9817.77
1935.00	9857.56
1936.00	9907.49
1937.00	10029.98
1938.00	10081.47
1939.00	10176.65
1940.00	10197.71
1941.00	10139.98
1942.00	10054.16
1943.00	10056.50
1944.00	10128.28
1945.00	10133.74
1946.00	10094.73
1947.00	10057.28
1948.00	10070.54
1949.00	10019.83
1950.00	9973.80
1951.00	9890.32
1952.00	9928.55
1953.00	9848.19
1954.00	9836.49
1955.00	9715.56
1956.00	9668.75
1957.00	9651.59
1958.00	9575.13
1959.00	9583.71
1960.00	9520.52
1961.00	9447.96
1962.00	9379.31
1963.00	9274.76
1964.00	9334.06
1965.00	9232.63
1966.00	9222.49
1967.00	9161.64
1968.00	9134.33
1969.00	9098.44
1970.00	9080.50
1971.00	9058.65
1972.00	9050.07
1973.00	9019.64
1974.00	9054.75
1975.00	9044.61
1976.00	9063.33
1977.00	9074.26
1978.00	9152.27
1979.00	9189.72
1980.00	9245.90
1981.00	9257.60
1982.00	9178.02
1983.00	9131.21
1984.00	9001.70
1985.00	9028.23
1986.00	8988.44
1987.00	8872.97
1988.00	8736.44
1989.00	8642.82
1990.00	8697.43
1991.00	8606.93
1992.00	8490.68
1993.00	8381.46
1994.00	8422.81
1995.00	8421.25
1996.00	8349.47
1997.00	8200.46
1998.00	8090.45
1999.00	8003.07
2000.00	7982.79
2001.00	8025.70
2002.00	8107.62
2003.00	8059.24
2004.00	7979.67
2005.00	7837.67
2006.00	7838.45
2007.00	7796.32
2008.00	7754.19
2009.00	7660.57
2010.00	7627.81
2011.00	7641.07
2012.00	7669.94
2013.00	7648.09
2014.00	7573.19
2015.00	7482.69
2016.00	7423.40
2017.00	7349.28
2018.00	7289.99
2019.00	7198.71
2020.00	7192.47
2021.00	7222.11
2022.00	7179.20
2023.00	7151.12
2024.00	7139.41
2025.00	7128.49
2026.00	7138.63
2027.00	7090.26
2028.00	7110.55
2029.00	7112.89
2030.00	7171.40
2031.00	7190.91
2032.00	7136.29
2033.00	7092.60
2034.00	6988.06
2035.00	6987.28
2036.00	6924.08
2037.00	6923.30
2038.00	6916.28
2039.00	6843.73
2040.00	6819.54
2041.00	6816.42
2042.00	6821.10
2043.00	6826.56
2044.00	6771.17
2045.00	6755.57
2046.00	6673.65
2047.00	6523.07
>>>>>End Processed Spectral Data<<<<<
