SpectraSuite Data File
++++++++++++++++++++++++++++++++++++
Date: Thu Nov 16 13:32:48 EST 2017
User: cheriyan
Dark Spectrum Present: No
Reference Spectrum Present: No
Number of Sampled Component Spectra: 1
Spectrometers: USB2+H05261
Integration Time (usec): 90000 (USB2+H05261)
Spectra Averaged: 1 (USB2+H05261)
Boxcar Smoothing: 1 (USB2+H05261)
Correct for Electrical Dark: No (USB2+H05261)
Strobe/Lamp Enabled: No (USB2+H05261)
Correct for Detector Non-linearity: No (USB2+H05261)
Correct for Stray Light: No (USB2+H05261)
Number of Pixels in Processed Spectrum: 2048
>>>>>Begin Processed Spectral Data<<<<<
0.00	348.74
1.00	348.74
2.00	322.99
3.00	283.98
4.00	263.70
5.00	241.08
6.00	252.00
7.00	262.92
8.00	301.93
9.00	287.89
10.00	278.52
11.00	260.58
12.00	287.89
13.00	269.16
14.00	269.16
15.00	241.86
16.00	245.76
17.00	230.93
18.00	249.66
19.00	259.80
20.00	310.51
21.00	319.09
22.00	332.36
23.00	759.89
24.00	2443.52
25.00	4318.29
26.00	5732.75
27.00	5888.01
28.00	5748.36
29.00	5557.99
30.00	5309.90
31.00	5198.33
32.00	5160.88
33.00	5249.82
34.00	5256.06
35.00	5203.01
36.00	4980.66
37.00	4821.50
38.00	4725.54
39.00	4856.61
40.00	4976.76
41.00	5030.59
42.00	4973.64
43.00	4919.03
44.00	4987.68
45.00	5132.79
46.00	5408.98
47.00	5658.64
48.00	5906.73
49.00	5934.04
50.00	5931.70
51.00	5861.48
52.00	5902.05
53.00	5928.58
54.00	6079.15
55.00	6296.82
56.00	6555.84
57.00	6841.39
58.00	7101.19
59.00	7315.73
60.00	7418.72
61.00	7451.49
62.00	7355.52
63.00	7164.38
64.00	6824.22
65.00	6589.39
66.00	6346.75
67.00	6221.14
68.00	6135.32
69.00	6065.11
70.00	6160.29
71.00	6331.15
72.00	6680.67
73.00	6949.83
74.00	7095.72
75.00	7090.26
76.00	6866.35
77.00	6591.73
78.00	6242.21
79.00	5886.45
80.00	5611.82
81.00	5343.44
82.00	5206.13
83.00	4996.26
84.00	4851.15
85.00	4735.68
86.00	4630.36
87.00	4605.39
88.00	4633.48
89.00	4756.75
90.00	4945.55
91.00	5265.43
92.00	5682.82
93.00	6136.88
94.00	6464.56
95.00	6658.04
96.00	6693.15
97.00	6609.67
98.00	6444.28
99.00	6261.71
100.00	6141.57
101.00	6194.62
102.00	6351.43
103.00	6577.69
104.00	6755.57
105.00	6778.97
106.00	6675.21
107.00	6612.01
108.00	6638.54
109.00	6739.18
110.00	6736.84
111.00	6754.79
112.00	6769.61
113.00	6732.16
114.00	6761.81
115.00	6885.08
116.00	7191.69
117.00	7527.94
118.00	7953.92
119.00	8308.12
120.00	8567.92
121.00	8617.07
122.00	8572.60
123.00	8575.72
124.00	8696.65
125.00	8953.33
126.00	9210.01
127.00	9472.15
128.00	9680.46
129.00	9685.92
130.00	9547.83
131.00	9171.00
132.00	8819.92
133.00	8437.63
134.00	7939.10
135.00	7227.57
136.00	6358.46
137.00	5565.79
138.00	5006.41
139.00	4770.01
140.00	4986.90
141.00	5518.98
142.00	6243.77
143.00	7018.49
144.00	7792.42
145.00	8501.61
146.00	9103.90
147.00	9574.35
148.00	9830.25
149.00	10084.59
150.00	10115.80
151.00	9966.00
152.00	9437.82
153.00	8712.25
154.00	7854.06
155.00	6969.34
156.00	6235.97
157.00	5926.24
158.00	6168.09
159.00	6997.42
160.00	8093.57
161.00	9233.41
162.00	10330.34
163.00	11215.85
164.00	11921.13
165.00	12396.26
166.00	12784.79
167.00	13076.57
168.00	13426.09
169.00	13686.67
170.00	13903.56
171.00	13913.70
172.00	14004.99
173.00	14142.30
174.00	14267.13
175.00	14401.32
176.00	14461.39
177.00	14597.92
178.00	14753.18
179.00	15054.33
180.00	15364.84
181.00	15580.95
182.00	15709.68
183.00	15694.07
184.00	15729.18
185.00	15700.31
186.00	15715.92
187.00	15660.52
188.00	15472.50
189.00	15203.34
190.00	15075.39
191.00	15271.22
192.00	15616.83
193.00	15913.30
194.00	15936.71
195.00	15774.43
196.00	15538.04
197.00	15342.99
198.00	15362.50
199.00	15404.63
200.00	15501.37
201.00	15678.47
202.00	15701.09
203.00	15634.78
204.00	15360.16
205.00	15174.47
206.00	15072.27
207.00	15089.43
208.00	15314.13
209.00	15555.98
210.00	15762.73
211.00	15655.84
212.00	15545.06
213.00	15645.70
214.00	15984.30
215.00	16389.99
216.00	16679.44
217.00	16928.31
218.00	17188.89
219.00	17450.25
220.00	17689.77
221.00	17710.05
222.00	17452.59
223.00	16853.42
224.00	16209.77
225.00	15626.98
226.00	15386.68
227.00	15525.55
228.00	15927.35
229.00	16528.08
230.00	17192.02
231.00	17682.75
232.00	18144.61
233.00	18462.15
234.00	18776.56
235.00	18969.26
236.00	19053.52
237.00	19057.42
238.00	18993.45
239.00	18767.98
240.00	18583.85
241.00	18261.64
242.00	18267.88
243.00	18349.02
244.00	18825.71
245.00	19100.33
246.00	19334.39
247.00	19221.26
248.00	19167.43
249.00	19163.53
250.00	19334.39
251.00	19399.92
252.00	19531.77
253.00	19449.85
254.00	19573.90
255.00	19705.75
256.00	20123.93
257.00	20548.34
258.00	20927.51
259.00	20957.16
260.00	20926.73
261.00	20615.44
262.00	20336.91
263.00	19864.91
264.00	19651.14
265.00	19549.71
266.00	19607.45
267.00	19783.77
268.00	19987.39
269.00	20140.31
270.00	20214.43
271.00	20289.32
272.00	20586.57
273.00	20676.29
274.00	20727.00
275.00	20563.95
276.00	20241.73
277.00	19939.02
278.00	19736.96
279.00	20024.84
280.00	20590.47
281.00	21170.15
282.00	21785.71
283.00	22016.64
284.00	22235.09
285.00	22137.57
286.00	22148.49
287.00	21833.30
288.00	21458.03
289.00	20861.19
290.00	20293.22
291.00	19740.86
292.00	19644.90
293.00	19955.41
294.00	20511.67
295.00	20762.11
296.00	20853.39
297.00	20823.75
298.00	21073.40
299.00	21163.90
300.00	21361.29
301.00	21002.41
302.00	20805.02
303.00	20487.49
304.00	20613.10
305.00	20595.93
306.00	20588.91
307.00	20341.60
308.00	20251.88
309.00	20110.66
310.00	20342.38
311.00	20706.72
312.00	20839.35
313.00	20639.62
314.00	19923.42
315.00	19410.06
316.00	19136.22
317.00	19247.01
318.00	19601.99
319.00	19768.16
320.00	20095.84
321.00	20068.53
322.00	20082.58
323.00	19810.29
324.00	19655.04
325.00	19428.79
326.00	19389.00
327.00	19154.94
328.00	18750.81
329.00	17981.56
330.00	17131.16
331.00	16208.21
332.00	15414.77
333.00	14909.21
334.00	14798.43
335.00	15070.71
336.00	15791.59
337.00	17041.44
338.00	18783.58
339.00	20496.07
340.00	21953.44
341.00	22578.37
342.00	22327.93
343.00	21628.11
344.00	21046.10
345.00	21195.89
346.00	21769.32
347.00	22480.07
348.00	22948.95
349.00	22787.46
350.00	21934.72
351.00	20823.75
352.00	20063.85
353.00	20006.12
354.00	20563.17
355.00	21315.26
356.00	22049.41
357.00	22505.81
358.00	22716.46
359.00	22821.78
360.00	22928.67
361.00	23366.35
362.00	23775.94
363.00	24244.83
364.00	24466.40
365.00	24624.78
366.00	24471.08
367.00	24294.76
368.00	24038.08
369.00	23698.70
370.00	23420.18
371.00	23254.00
372.00	23104.21
373.00	22686.81
374.00	21995.57
375.00	21596.90
376.00	21394.84
377.00	21593.00
378.00	22040.82
379.00	22640.78
380.00	23226.70
381.00	23842.26
382.00	24268.23
383.00	24560.80
384.00	24519.45
385.00	24305.68
386.00	24191.78
387.00	24182.42
388.00	24579.53
389.00	25184.16
390.00	25875.40
391.00	26238.97
392.00	26497.20
393.00	26893.54
394.00	27344.48
395.00	27715.06
396.00	27722.87
397.00	28031.82
398.00	28248.71
399.00	28450.77
400.00	28219.84
401.00	27983.45
402.00	27862.52
403.00	28207.36
404.00	28541.27
405.00	28811.21
406.00	28754.26
407.00	28687.17
408.00	28253.39
409.00	28152.74
410.00	28268.21
411.00	28632.55
412.00	28308.00
413.00	27560.59
414.00	26843.60
415.00	26448.05
416.00	26418.41
417.00	26498.77
418.00	26864.67
419.00	27119.79
420.00	27586.33
421.00	28116.08
422.00	28631.77
423.00	29035.91
424.00	29330.81
425.00	29618.70
426.00	29613.24
427.00	29319.11
428.00	28956.33
429.00	28852.56
430.00	28775.33
431.00	28722.27
432.00	28765.18
433.00	28832.28
434.00	28961.01
435.00	29018.74
436.00	29303.51
437.00	29574.23
438.00	29868.36
439.00	30206.95
440.00	30800.67
441.00	31197.78
442.00	31473.96
443.00	31288.28
444.00	31133.81
445.00	30872.45
446.00	30821.73
447.00	30678.96
448.00	30554.91
449.00	30231.92
450.00	30036.88
451.00	29546.92
452.00	29054.63
453.00	28335.31
454.00	28024.01
455.00	27989.69
456.00	28350.91
457.00	28765.96
458.00	29259.04
459.00	29578.91
460.00	29956.52
461.00	30079.00
462.00	30213.98
463.00	29904.24
464.00	29794.24
465.00	29542.24
466.00	29761.47
467.00	29866.02
468.00	30171.85
469.00	30565.06
470.00	31072.17
471.00	31486.45
472.00	31544.18
473.00	31490.35
474.00	31686.95
475.00	31828.95
476.00	32127.75
477.00	32323.58
478.00	32555.29
479.00	32566.21
480.00	32109.03
481.00	31830.51
482.00	31340.55
483.00	31029.26
484.00	30991.81
485.00	31189.98
486.00	31388.14
487.00	31253.17
488.00	31246.15
489.00	31281.26
490.00	31195.44
491.00	31142.39
492.00	31265.66
493.00	31481.77
494.00	31622.98
495.00	31816.46
496.00	32259.60
497.00	32584.94
498.00	32744.87
499.00	32655.93
500.00	32577.14
501.00	32577.14
502.00	32728.49
503.00	32866.58
504.00	33031.98
505.00	33062.41
506.00	33205.18
507.00	33448.60
508.00	33462.64
509.00	33523.49
510.00	33358.88
511.00	33219.22
512.00	33104.54
513.00	32964.10
514.00	32871.26
515.00	32757.36
516.00	32495.22
517.00	32121.51
518.00	31833.63
519.00	31615.18
520.00	31878.10
521.00	32009.95
522.00	32197.19
523.00	32549.83
524.00	32832.25
525.00	33181.77
526.00	32848.64
527.00	32448.41
528.00	31720.50
529.00	31356.94
530.00	31196.22
531.00	31407.65
532.00	31591.77
533.00	31731.42
534.00	31979.52
535.00	32243.22
536.00	32020.09
537.00	31847.67
538.00	31789.16
539.00	31942.85
540.00	32181.59
541.00	32267.41
542.00	32632.53
543.00	32827.57
544.00	32804.17
545.00	32679.34
546.00	32167.54
547.00	31963.14
548.00	31566.81
549.00	31574.61
550.00	31548.08
551.00	31569.15
552.00	31731.42
553.00	31847.67
554.00	32143.36
555.00	32674.66
556.00	33120.14
557.00	33922.94
558.00	34270.12
559.00	34748.37
560.00	34777.24
561.00	34758.52
562.00	34352.82
563.00	33953.37
564.00	33537.54
565.00	33634.28
566.00	33858.97
567.00	33980.68
568.00	34025.93
569.00	34082.10
570.00	34673.48
571.00	35152.51
572.00	35470.04
573.00	35425.57
574.00	35367.06
575.00	35404.50
576.00	35490.32
577.00	35514.51
578.00	35530.89
579.00	35243.01
580.00	35160.31
581.00	35104.92
582.00	35177.47
583.00	35076.05
584.00	35239.89
585.00	35661.96
586.00	36297.03
587.00	36549.81
588.00	36774.50
589.00	37229.34
590.00	37873.77
591.00	38459.68
592.00	38595.43
593.00	38715.58
594.00	38575.93
595.00	38517.42
596.00	38397.27
597.00	38593.87
598.00	39260.15
599.00	39790.67
600.00	40347.72
601.00	40148.77
602.00	40218.21
603.00	40186.22
604.00	40650.42
605.00	41160.66
606.00	41240.24
607.00	41205.91
608.00	41255.84
609.00	41718.49
610.00	42251.35
611.00	42359.80
612.00	42717.90
613.00	42998.76
614.00	43151.68
615.00	43075.22
616.00	42870.81
617.00	43001.88
618.00	43225.01
619.00	43438.78
620.00	43656.45
621.00	43975.55
622.00	44111.30
623.00	44380.46
624.00	44213.50
625.00	44218.96
626.00	44112.86
627.00	44215.84
628.00	44341.45
629.00	44686.29
630.00	45140.35
631.00	45049.07
632.00	44148.74
633.00	43066.64
634.00	41773.10
635.00	40218.99
636.00	38515.86
637.00	37709.93
638.00	38179.60
639.00	39252.34
640.00	40587.23
641.00	41597.56
642.00	42624.28
643.00	43416.94
644.00	44399.96
645.00	45116.95
646.00	45996.21
647.00	46639.86
648.00	47175.84
649.00	47438.76
650.00	47327.19
651.00	47122.01
652.00	46702.27
653.00	46813.05
654.00	47259.32
655.00	48206.45
656.00	49180.12
657.00	50063.28
658.00	50539.19
659.00	50874.66
660.00	51046.30
661.00	51088.43
662.00	50997.15
663.00	50745.15
664.00	50602.38
665.00	50473.65
666.00	50473.65
667.00	50266.91
668.00	49706.74
669.00	49180.12
670.00	48844.64
671.00	48977.27
672.00	49547.58
673.00	50452.59
674.00	51462.14
675.00	52091.74
676.00	52247.00
677.00	52183.02
678.00	51828.04
679.00	51640.02
680.00	51589.31
681.00	51837.40
682.00	52461.55
683.00	53009.23
684.00	53616.99
685.00	53810.48
686.00	53985.24
687.00	54058.57
688.00	54038.29
689.00	53780.83
690.00	53375.92
691.00	53141.08
692.00	53196.48
693.00	53623.23
694.00	54134.25
695.00	54545.40
696.00	54671.79
697.00	54695.98
698.00	54742.79
699.00	54841.87
700.00	55031.46
701.00	55125.86
702.00	55048.62
703.00	54706.90
704.00	54125.67
705.00	53569.40
706.00	53314.28
707.00	53548.34
708.00	54057.01
709.00	54546.97
710.00	54948.76
711.00	55210.90
712.00	55328.70
713.00	55324.02
714.00	55184.37
715.00	54944.86
716.00	54545.40
717.00	54240.35
718.00	53864.31
719.00	53717.64
720.00	53652.88
721.00	53706.71
722.00	53648.20
723.00	53529.61
724.00	53411.02
725.00	53350.17
726.00	53367.34
727.00	53729.34
728.00	53974.31
729.00	54298.87
730.00	54448.66
731.00	54710.02
732.00	54931.59
733.00	55019.75
734.00	54971.38
735.00	54639.81
736.00	54060.13
737.00	53641.96
738.00	53467.20
739.00	53693.45
740.00	53915.80
741.00	54351.92
742.00	54668.67
743.00	55051.74
744.00	55187.49
745.00	55579.92
746.00	55827.24
747.00	56209.53
748.00	56395.21
749.00	56625.36
750.00	56592.59
751.00	56358.54
752.00	56197.82
753.00	55991.08
754.00	55879.51
755.00	55670.42
756.00	55684.47
757.00	55551.05
758.00	55314.66
759.00	54954.22
760.00	54660.09
761.00	54626.54
762.00	54788.82
763.00	55208.56
764.00	55544.81
765.00	55856.88
766.00	56280.52
767.00	56607.42
768.00	56654.23
769.00	56498.97
770.00	56238.39
771.00	56101.86
772.00	56002.00
773.00	56016.04
774.00	56163.49
775.00	56061.29
776.00	55984.83
777.00	55924.76
778.00	56154.13
779.00	56506.77
780.00	56751.75
781.00	57114.53
782.00	57259.65
783.00	57254.96
784.00	56892.96
785.00	56461.52
786.00	56172.86
787.00	55977.03
788.00	55923.20
789.00	55909.16
790.00	55941.14
791.00	55995.76
792.00	55975.47
793.00	55894.33
794.00	55768.72
795.00	55612.69
796.00	55574.46
797.00	55508.14
798.00	55569.78
799.00	55604.89
800.00	55809.29
801.00	55933.34
802.00	56112.78
803.00	56181.44
804.00	56323.43
805.00	56559.83
806.00	56629.26
807.00	56384.29
808.00	55610.35
809.00	54528.24
810.00	53203.50
811.00	51939.61
812.00	50784.16
813.00	50245.84
814.00	50702.24
815.00	52056.64
816.00	53508.55
817.00	54244.26
818.00	54139.71
819.00	53549.12
820.00	52897.67
821.00	52716.67
822.00	52916.39
823.00	53588.91
824.00	54185.74
825.00	54759.95
826.00	54993.23
827.00	55266.29
828.00	55597.09
829.00	56098.74
830.00	56367.12
831.00	56428.76
832.00	56129.17
833.00	55897.45
834.00	55742.98
835.00	55833.48
836.00	56064.41
837.00	56317.97
838.00	56511.45
839.00	56685.43
840.00	56819.63
841.00	57017.79
842.00	56962.40
843.00	56836.79
844.00	56335.13
845.00	55958.31
846.00	55707.87
847.00	55602.55
848.00	55670.42
849.00	55810.07
850.00	56235.27
851.00	56697.14
852.00	57049.00
853.00	57325.96
854.00	57365.75
855.00	57447.67
856.00	57369.65
857.00	57301.00
858.00	57187.87
859.00	57055.24
860.00	57087.23
861.00	57028.71
862.00	57191.77
863.00	57165.24
864.00	56995.95
865.00	56429.54
866.00	55710.99
867.00	54791.94
868.00	53897.86
869.00	53202.72
870.00	52992.07
871.00	53307.26
872.00	53691.89
873.00	54368.30
874.00	54937.83
875.00	55601.77
876.00	55927.88
877.00	56168.96
878.00	56360.88
879.00	56653.45
880.00	56962.40
881.00	57254.96
882.00	57337.66
883.00	57434.41
884.00	57311.92
885.00	57038.08
886.00	56605.86
887.00	56264.14
888.00	56281.30
889.00	56326.55
890.00	56647.21
891.00	56838.35
892.00	57273.69
893.00	57361.85
894.00	57547.53
895.00	57449.23
896.00	57466.39
897.00	57210.49
898.00	57031.83
899.00	56809.48
900.00	56556.70
901.00	56138.53
902.00	55579.14
903.00	55062.66
904.00	54743.57
905.00	54649.95
906.00	54910.53
907.00	55311.54
908.00	55713.33
909.00	56179.88
910.00	56244.63
911.00	56226.69
912.00	55959.09
913.00	55838.16
914.00	55679.00
915.00	55713.33
916.00	55805.39
917.00	56172.08
918.00	56423.29
919.00	56633.16
920.00	56781.40
921.00	56953.82
922.00	57148.86
923.00	57158.22
924.00	56860.97
925.00	56471.67
926.00	56044.91
927.00	55661.06
928.00	55198.41
929.00	54933.15
930.00	54941.74
931.00	55233.52
932.00	55603.33
933.00	55860.01
934.00	56050.37
935.00	56005.90
936.00	55963.77
937.00	55941.92
938.00	55856.10
939.00	55867.81
940.00	55744.54
941.00	55661.84
942.00	55453.53
943.00	55198.41
944.00	54925.35
945.00	54624.20
946.00	54482.21
947.00	54257.52
948.00	54206.03
949.00	54076.52
950.00	54040.63
951.00	53816.72
952.00	53627.13
953.00	53609.19
954.00	53878.35
955.00	54187.30
956.00	54499.37
957.00	54689.74
958.00	54889.46
959.00	55055.64
960.00	55033.80
961.00	54819.25
962.00	54777.90
963.00	54736.55
964.00	54791.94
965.00	54564.91
966.00	54446.32
967.00	54537.60
968.00	54759.17
969.00	54993.23
970.00	55325.58
971.00	55702.41
972.00	55869.37
973.00	55586.94
974.00	55228.84
975.00	55147.70
976.00	55055.64
977.00	55061.88
978.00	54860.60
979.00	54916.77
980.00	54788.82
981.00	55007.27
982.00	54958.90
983.00	54947.20
984.00	54760.73
985.00	54692.08
986.00	54688.96
987.00	54598.46
988.00	54746.69
989.00	54657.75
990.00	54647.61
991.00	54215.39
992.00	53892.40
993.00	53531.95
994.00	53624.01
995.00	53880.69
996.00	54151.41
997.00	54440.86
998.00	54643.71
999.00	54759.95
1000.00	54789.60
1001.00	54577.39
1002.00	54582.85
1003.00	54390.93
1004.00	54589.87
1005.00	54498.59
1006.00	54546.97
1007.00	54390.93
1008.00	54316.81
1009.00	54013.32
1010.00	53872.89
1011.00	53840.90
1012.00	54017.22
1013.00	53886.93
1014.00	53918.92
1015.00	53924.38
1016.00	54212.27
1017.00	54402.63
1018.00	54610.16
1019.00	54690.52
1020.00	54575.83
1021.00	54372.20
1022.00	54037.51
1023.00	53789.41
1024.00	53624.79
1025.00	53679.41
1026.00	53821.40
1027.00	53941.55
1028.00	54008.64
1029.00	53943.11
1030.00	54071.06
1031.00	54244.26
1032.00	54474.41
1033.00	54400.29
1034.00	54351.14
1035.00	54284.83
1036.00	54442.42
1037.00	54436.96
1038.00	54354.26
1039.00	54213.05
1040.00	54003.96
1041.00	53869.77
1042.00	53624.79
1043.00	53497.62
1044.00	53389.18
1045.00	53365.77
1046.00	53284.64
1047.00	53012.35
1048.00	52864.90
1049.00	52733.83
1050.00	52821.21
1051.00	52756.46
1052.00	52949.94
1053.00	53130.94
1054.00	53198.82
1055.00	53081.79
1056.00	52774.40
1057.00	52512.26
1058.00	52003.58
1059.00	51537.82
1060.00	51286.60
1061.00	51320.93
1062.00	51531.57
1063.00	51536.26
1064.00	51491.79
1065.00	51466.82
1066.00	51583.85
1067.00	51743.00
1068.00	51824.92
1069.00	52115.15
1070.00	52387.43
1071.00	52885.96
1072.00	52999.09
1073.00	53010.01
1074.00	52749.43
1075.00	52339.84
1076.00	52089.40
1077.00	51747.68
1078.00	51693.85
1079.00	51548.74
1080.00	51613.49
1081.00	51666.55
1082.00	51803.08
1083.00	51927.13
1084.00	51970.04
1085.00	52079.26
1086.00	51987.98
1087.00	52109.69
1088.00	51865.49
1089.00	51826.48
1090.00	51538.60
1091.00	51434.83
1092.00	51324.05
1093.00	51448.10
1094.00	51615.05
1095.00	51676.69
1096.00	51597.11
1097.00	51486.32
1098.00	51461.36
1099.00	51202.34
1100.00	50901.97
1101.00	50445.57
1102.00	50160.80
1103.00	49986.82
1104.00	49955.61
1105.00	49974.34
1106.00	50046.90
1107.00	50158.46
1108.00	50418.26
1109.00	50710.83
1110.00	51002.61
1111.00	51012.76
1112.00	51093.89
1113.00	50982.33
1114.00	50905.09
1115.00	50464.29
1116.00	50087.46
1117.00	49773.83
1118.00	49470.34
1119.00	49249.55
1120.00	49072.45
1121.00	49095.08
1122.00	49230.05
1123.00	49251.89
1124.00	49411.83
1125.00	49390.76
1126.00	49414.95
1127.00	49337.71
1128.00	49095.08
1129.00	48983.51
1130.00	48693.29
1131.00	48301.64
1132.00	47886.58
1133.00	47393.51
1134.00	47237.47
1135.00	46991.72
1136.00	47157.11
1137.00	47420.03
1138.00	47851.47
1139.00	48368.73
1140.00	48750.24
1141.00	49011.60
1142.00	49062.31
1143.00	49056.85
1144.00	49075.57
1145.00	49030.32
1146.00	49102.88
1147.00	48995.99
1148.00	48893.01
1149.00	48708.11
1150.00	48536.47
1151.00	48526.33
1152.00	48453.77
1153.00	48501.36
1154.00	48188.51
1155.00	47959.14
1156.00	47612.74
1157.00	47462.16
1158.00	47251.52
1159.00	47013.56
1160.00	46711.63
1161.00	46598.51
1162.00	46532.97
1163.00	46479.92
1164.00	46402.68
1165.00	46481.48
1166.00	46523.61
1167.00	46653.12
1168.00	46884.83
1169.00	47014.34
1170.00	46886.39
1171.00	46672.62
1172.00	46567.30
1173.00	46589.14
1174.00	46334.03
1175.00	46284.87
1176.00	45979.82
1177.00	45865.14
1178.00	45262.84
1179.00	45017.86
1180.00	44972.61
1181.00	45243.34
1182.00	45336.18
1183.00	45380.65
1184.00	45538.24
1185.00	45775.42
1186.00	45886.20
1187.00	45890.88
1188.00	45981.38
1189.00	46220.90
1190.00	46369.13
1191.00	46401.90
1192.00	46100.75
1193.00	45990.75
1194.00	45886.98
1195.00	45958.76
1196.00	45956.42
1197.00	45904.15
1198.00	45943.94
1199.00	46004.79
1200.00	46158.48
1201.00	46355.09
1202.00	46550.13
1203.00	46720.21
1204.00	46774.83
1205.00	46910.58
1206.00	46950.37
1207.00	46969.09
1208.00	46918.38
1209.00	46736.60
1210.00	46605.53
1211.00	46482.26
1212.00	46564.96
1213.00	46525.17
1214.00	46335.59
1215.00	46235.72
1216.00	46144.44
1217.00	46186.57
1218.00	46007.13
1219.00	45978.26
1220.00	45859.68
1221.00	45457.10
1222.00	44995.24
1223.00	44610.61
1224.00	44451.45
1225.00	44380.46
1226.00	44333.65
1227.00	44428.83
1228.00	44351.59
1229.00	44223.64
1230.00	44156.55
1231.00	44417.13
1232.00	44543.52
1233.00	44766.65
1234.00	44605.93
1235.00	44615.29
1236.00	44518.55
1237.00	44339.11
1238.00	44288.40
1239.00	44044.98
1240.00	43944.34
1241.00	43403.67
1242.00	42764.71
1243.00	41578.84
1244.00	40467.86
1245.00	39198.51
1246.00	38383.23
1247.00	37855.04
1248.00	37639.72
1249.00	37787.95
1250.00	38193.64
1251.00	39032.33
1252.00	39742.30
1253.00	40642.62
1254.00	41172.36
1255.00	41758.28
1256.00	41990.77
1257.00	42398.80
1258.00	42650.02
1259.00	42425.33
1260.00	42099.22
1261.00	41812.11
1262.00	41991.55
1263.00	41962.68
1264.00	41798.85
1265.00	41521.88
1266.00	41478.19
1267.00	41676.36
1268.00	41825.37
1269.00	41826.93
1270.00	41843.32
1271.00	41895.59
1272.00	41958.00
1273.00	41935.38
1274.00	41965.81
1275.00	42049.28
1276.00	41885.45
1277.00	41375.99
1278.00	41001.50
1279.00	40899.30
1280.00	40778.37
1281.00	40455.38
1282.00	40156.57
1283.00	40208.06
1284.00	40364.88
1285.00	40590.35
1286.00	40822.84
1287.00	40963.28
1288.00	41049.88
1289.00	41205.91
1290.00	41331.52
1291.00	41518.76
1292.00	41517.20
1293.00	41546.07
1294.00	41463.37
1295.00	41384.57
1296.00	41393.93
1297.00	41167.68
1298.00	41147.40
1299.00	40996.04
1300.00	40964.84
1301.00	40825.18
1302.00	40725.32
1303.00	40651.98
1304.00	40563.82
1305.00	40605.17
1306.00	40659.79
1307.00	40620.78
1308.00	40516.23
1309.00	40325.09
1310.00	40423.39
1311.00	40401.55
1312.00	40591.13
1313.00	40453.82
1314.00	40556.02
1315.00	40433.53
1316.00	40439.00
1317.00	40299.34
1318.00	40229.13
1319.00	40073.09
1320.00	40058.27
1321.00	40105.08
1322.00	40081.67
1323.00	39924.08
1324.00	39885.85
1325.00	39714.21
1326.00	39566.76
1327.00	39352.21
1328.00	39125.18
1329.00	39119.71
1330.00	39005.03
1331.00	39089.29
1332.00	39129.86
1333.00	39356.11
1334.00	39754.00
1335.00	39873.37
1336.00	40003.66
1337.00	40088.70
1338.00	40197.92
1339.00	40293.88
1340.00	40170.61
1341.00	40234.59
1342.00	40077.77
1343.00	40089.48
1344.00	39826.56
1345.00	39871.03
1346.00	39749.32
1347.00	39830.46
1348.00	39604.20
1349.00	39508.24
1350.00	39452.07
1351.00	39470.79
1352.00	39471.57
1353.00	39410.72
1354.00	39388.10
1355.00	39380.29
1356.00	39185.25
1357.00	39084.61
1358.00	38962.90
1359.00	39157.16
1360.00	39132.98
1361.00	39157.16
1362.00	39054.18
1363.00	39093.19
1364.00	38929.35
1365.00	38792.82
1366.00	38440.96
1367.00	38323.15
1368.00	38156.19
1369.00	38159.31
1370.00	37975.97
1371.00	37876.89
1372.00	37816.04
1373.00	37881.57
1374.00	37874.55
1375.00	37780.93
1376.00	37870.65
1377.00	37778.59
1378.00	37865.97
1379.00	37589.78
1380.00	37283.95
1381.00	36762.01
1382.00	36669.95
1383.00	36769.04
1384.00	37035.86
1385.00	37200.47
1386.00	37313.60
1387.00	37400.98
1388.00	37352.61
1389.00	37273.03
1390.00	37200.47
1391.00	37048.34
1392.00	36875.14
1393.00	36534.20
1394.00	36338.38
1395.00	36132.41
1396.00	36303.27
1397.00	36300.15
1398.00	36457.74
1399.00	36295.47
1400.00	36350.08
1401.00	36205.75
1402.00	35999.00
1403.00	35613.59
1404.00	35360.03
1405.00	35413.87
1406.00	35393.58
1407.00	35562.88
1408.00	35537.13
1409.00	35683.81
1410.00	35775.09
1411.00	35825.80
1412.00	35887.43
1413.00	35728.28
1414.00	35625.29
1415.00	35412.31
1416.00	35323.36
1417.00	34967.60
1418.00	34598.58
1419.00	34036.85
1420.00	33897.20
1421.00	33706.84
1422.00	33841.81
1423.00	33680.31
1424.00	33663.14
1425.00	33772.37
1426.00	33927.63
1427.00	34360.62
1428.00	34437.86
1429.00	34594.68
1430.00	34621.20
1431.00	34777.24
1432.00	34983.99
1433.00	35055.76
1434.00	34987.11
1435.00	34866.18
1436.00	34667.23
1437.00	34543.19
1438.00	34330.98
1439.00	34167.14
1440.00	34098.48
1441.00	34075.08
1442.00	34164.02
1443.00	34274.80
1444.00	34153.10
1445.00	34057.92
1446.00	33929.97
1447.00	34114.09
1448.00	34170.26
1449.00	34279.49
1450.00	34366.09
1451.00	34388.71
1452.00	34217.07
1453.00	33939.33
1454.00	33610.87
1455.00	33447.82
1456.00	33312.06
1457.00	33334.69
1458.00	33383.84
1459.00	33275.40
1460.00	33317.53
1461.00	33101.42
1462.00	33078.01
1463.00	32788.56
1464.00	32680.90
1465.00	32491.32
1466.00	32375.85
1467.00	32370.39
1468.00	32395.35
1469.00	32320.46
1470.00	32218.25
1471.00	32146.48
1472.00	32031.01
1473.00	31747.81
1474.00	31573.05
1475.00	31484.11
1476.00	31376.44
1477.00	31307.79
1478.00	31269.56
1479.00	31260.98
1480.00	30905.21
1481.00	30693.01
1482.00	30657.12
1483.00	30835.00
1484.00	30994.93
1485.00	31053.45
1486.00	31056.57
1487.00	30890.39
1488.00	30998.84
1489.00	31059.69
1490.00	31214.94
1491.00	30932.52
1492.00	30817.83
1493.00	30445.69
1494.00	29993.97
1495.00	29373.72
1496.00	28726.18
1497.00	28326.72
1498.00	28212.04
1499.00	28381.34
1500.00	28669.22
1501.00	28912.64
1502.00	29269.18
1503.00	29530.54
1504.00	29657.71
1505.00	29649.91
1506.00	29487.63
1507.00	29256.70
1508.00	28953.99
1509.00	28868.17
1510.00	28684.83
1511.00	28649.72
1512.00	28596.67
1513.00	28637.23
1514.00	28760.50
1515.00	28836.18
1516.00	28958.67
1517.00	29045.27
1518.00	29022.64
1519.00	28975.83
1520.00	28722.27
1521.00	28488.22
1522.00	28312.68
1523.00	28222.18
1524.00	28214.38
1525.00	28329.06
1526.00	28479.64
1527.00	28704.33
1528.00	28811.99
1529.00	28961.79
1530.00	29010.16
1531.00	28955.55
1532.00	28897.03
1533.00	28778.45
1534.00	28664.54
1535.00	28465.60
1536.00	28346.23
1537.00	28289.27
1538.00	28274.45
1539.00	28272.89
1540.00	28303.32
1541.00	28396.16
1542.00	28554.54
1543.00	28632.55
1544.00	28758.94
1545.00	28806.53
1546.00	28861.15
1547.00	28768.30
1548.00	28570.14
1549.00	28388.36
1550.00	28209.70
1551.00	28212.82
1552.00	28215.94
1553.00	28202.68
1554.00	28197.21
1555.00	28209.70
1556.00	28236.22
1557.00	28267.43
1558.00	28347.01
1559.00	28408.64
1560.00	28327.50
1561.00	28317.36
1562.00	28459.35
1563.00	28503.04
1564.00	28516.31
1565.00	28384.46
1566.00	28336.09
1567.00	28220.62
1568.00	28240.12
1569.00	28243.24
1570.00	28342.33
1571.00	28180.05
1572.00	27855.50
1573.00	27671.37
1574.00	27555.13
1575.00	27660.45
1576.00	27415.48
1577.00	27243.06
1578.00	27166.60
1579.00	27218.09
1580.00	27215.75
1581.00	27166.60
1582.00	27074.54
1583.00	27068.30
1584.00	26961.41
1585.00	26828.00
1586.00	26735.16
1587.00	26576.78
1588.00	26714.09
1589.00	26721.12
1590.00	26771.05
1591.00	26613.45
1592.00	26637.64
1593.00	26707.07
1594.00	26674.31
1595.00	26639.98
1596.00	26671.96
1597.00	26719.56
1598.00	26739.06
1599.00	26628.27
1600.00	26701.61
1601.00	26570.54
1602.00	26476.14
1603.00	26217.90
1604.00	26100.09
1605.00	26119.60
1606.00	26181.23
1607.00	26259.25
1608.00	26235.84
1609.00	26279.54
1610.00	26133.64
1611.00	26131.30
1612.00	25890.23
1613.00	25859.80
1614.00	25761.50
1615.00	25903.49
1616.00	25861.36
1617.00	25699.08
1618.00	25515.74
1619.00	25333.96
1620.00	25254.38
1621.00	25142.81
1622.00	25137.35
1623.00	25033.59
1624.00	24961.03
1625.00	24931.39
1626.00	25006.28
1627.00	24903.30
1628.00	24705.13
1629.00	24471.08
1630.00	24399.30
1631.00	24428.17
1632.00	24457.04
1633.00	24428.17
1634.00	24480.44
1635.00	24456.26
1636.00	24425.83
1637.00	24294.76
1638.00	24134.82
1639.00	24035.74
1640.00	23830.55
1641.00	23568.41
1642.00	23309.40
1643.00	23163.50
1644.00	23180.67
1645.00	23314.86
1646.00	23592.60
1647.00	24046.66
1648.00	24332.21
1649.00	24584.99
1650.00	24730.10
1651.00	24781.59
1652.00	24858.05
1653.00	24768.33
1654.00	24606.05
1655.00	24284.62
1656.00	23950.70
1657.00	23894.53
1658.00	23711.19
1659.00	23573.10
1660.00	23540.33
1661.00	23626.93
1662.00	23818.07
1663.00	23955.38
1664.00	24045.88
1665.00	24111.42
1666.00	24084.11
1667.00	24018.58
1668.00	23926.52
1669.00	23804.81
1670.00	23807.15
1671.00	23855.52
1672.00	23885.95
1673.00	23946.02
1674.00	23782.96
1675.00	23659.70
1676.00	23492.74
1677.00	23240.74
1678.00	22998.88
1679.00	22749.23
1680.00	22748.45
1681.00	22716.46
1682.00	22579.15
1683.00	22309.99
1684.00	21954.23
1685.00	21498.60
1686.00	20982.12
1687.00	20086.48
1688.00	19268.07
1689.00	18483.21
1690.00	18274.12
1691.00	18292.85
1692.00	18800.74
1693.00	19365.59
1694.00	20042.01
1695.00	20560.83
1696.00	21103.83
1697.00	21532.15
1698.00	21785.71
1699.00	21965.93
1700.00	22164.09
1701.00	22219.49
1702.00	22337.29
1703.00	22480.85
1704.00	22544.04
1705.00	22579.93
1706.00	22506.59
1707.00	22589.29
1708.00	22430.91
1709.00	22217.15
1710.00	22072.03
1711.00	22101.68
1712.00	22126.64
1713.00	22185.94
1714.00	22151.61
1715.00	22247.57
1716.00	22229.63
1717.00	22311.55
1718.00	22302.96
1719.00	22260.84
1720.00	22228.85
1721.00	22164.87
1722.00	22295.94
1723.00	22241.33
1724.00	22228.07
1725.00	22196.08
1726.00	22147.71
1727.00	22134.45
1728.00	22040.04
1729.00	21932.38
1730.00	21852.80
1731.00	21825.50
1732.00	21831.74
1733.00	21856.70
1734.00	21928.48
1735.00	21965.15
1736.00	21774.78
1737.00	21412.78
1738.00	21190.43
1739.00	21113.97
1740.00	21213.06
1741.00	21198.23
1742.00	21221.64
1743.00	21115.53
1744.00	21109.29
1745.00	21021.13
1746.00	20979.00
1747.00	20870.56
1748.00	20895.52
1749.00	20876.80
1750.00	20961.84
1751.00	21028.15
1752.00	21165.46
1753.00	21154.54
1754.00	21060.14
1755.00	20922.05
1756.00	20897.08
1757.00	20825.31
1758.00	20588.13
1759.00	20461.74
1760.00	20291.66
1761.00	20347.06
1762.00	20242.51
1763.00	20124.71
1764.00	20019.38
1765.00	20090.38
1766.00	20288.54
1767.00	20274.50
1768.00	20097.40
1769.00	19897.67
1770.00	19954.63
1771.00	19914.06
1772.00	19935.12
1773.00	19838.38
1774.00	19897.67
1775.00	19916.40
1776.00	19971.01
1777.00	20020.16
1778.00	19995.98
1779.00	19916.40
1780.00	19775.19
1781.00	19620.71
1782.00	19533.33
1783.00	19501.34
1784.00	19548.15
1785.00	19552.84
1786.00	19392.12
1787.00	19247.01
1788.00	19090.19
1789.00	19130.76
1790.00	19193.95
1791.00	19154.94
1792.00	19066.78
1793.00	18932.59
1794.00	18922.45
1795.00	18924.01
1796.00	18780.46
1797.00	18636.91
1798.00	18462.15
1799.00	18443.42
1800.00	18324.05
1801.00	18331.86
1802.00	18292.85
1803.00	18319.37
1804.00	18320.93
1805.00	18313.13
1806.00	18369.30
1807.00	18344.34
1808.00	18272.56
1809.00	18124.33
1810.00	18082.98
1811.00	17990.92
1812.00	17978.44
1813.00	17859.07
1814.00	17781.83
1815.00	17787.29
1816.00	17745.94
1817.00	17722.54
1818.00	17554.80
1819.00	17465.08
1820.00	17491.60
1821.00	17476.78
1822.00	17524.37
1823.00	17524.37
1824.00	17504.09
1825.00	17468.20
1826.00	17256.77
1827.00	17265.35
1828.00	17241.17
1829.00	17339.47
1830.00	17202.16
1831.00	17074.21
1832.00	16974.35
1833.00	16975.91
1834.00	16957.18
1835.00	16931.44
1836.00	16784.76
1837.00	16729.37
1838.00	16738.73
1839.00	16819.87
1840.00	16762.14
1841.00	16641.99
1842.00	16514.82
1843.00	16535.88
1844.00	16453.97
1845.00	16464.89
1846.00	16368.93
1847.00	16313.53
1848.00	16174.66
1849.00	15987.42
1850.00	15883.66
1851.00	15903.94
1852.00	15907.06
1853.00	15965.57
1854.00	15914.86
1855.00	15870.39
1856.00	15740.10
1857.00	15668.33
1858.00	15641.02
1859.00	15637.90
1860.00	15653.50
1861.00	15531.01
1862.00	15435.83
1863.00	15326.61
1864.00	15284.48
1865.00	15292.28
1866.00	15289.16
1867.00	15240.01
1868.00	15077.73
1869.00	14997.37
1870.00	14995.03
1871.00	15048.86
1872.00	14977.09
1873.00	14970.85
1874.00	14915.45
1875.00	14803.89
1876.00	14737.57
1877.00	14654.87
1878.00	14606.50
1879.00	14487.92
1880.00	14430.96
1881.00	14461.39
1882.00	14457.49
1883.00	14411.46
1884.00	14349.82
1885.00	14122.79
1886.00	13958.17
1887.00	13730.36
1888.00	13678.09
1889.00	13720.22
1890.00	13765.47
1891.00	13731.92
1892.00	13673.41
1893.00	13663.27
1894.00	13675.75
1895.00	13589.15
1896.00	13500.99
1897.00	13460.42
1898.00	13417.51
1899.00	13398.01
1900.00	13348.08
1901.00	13332.47
1902.00	13229.49
1903.00	13036.00
1904.00	12538.25
1905.00	11871.98
1906.00	10938.10
1907.00	10125.16
1908.00	9254.48
1909.00	8681.05
1910.00	8177.83
1911.00	7979.67
1912.00	8022.58
1913.00	8306.56
1914.00	8787.15
1915.00	9252.92
1916.00	9674.21
1917.00	9969.12
1918.00	10178.21
1919.00	10282.75
1920.00	10218.00
1921.00	10090.83
1922.00	9925.43
1923.00	9817.77
1924.00	9658.61
1925.00	9574.35
1926.00	9559.53
1927.00	9591.52
1928.00	9718.68
1929.00	9742.87
1930.00	9769.40
1931.00	9728.05
1932.00	9838.83
1933.00	9957.42
1934.00	10057.28
1935.00	10109.55
1936.00	10174.31
1937.00	10253.89
1938.00	10288.21
1939.00	10358.43
1940.00	10373.25
1941.00	10312.40
1942.00	10317.86
1943.00	10317.86
1944.00	10363.89
1945.00	10315.52
1946.00	10287.43
1947.00	10349.07
1948.00	10330.34
1949.00	10297.58
1950.00	10141.54
1951.00	10082.25
1952.00	9958.98
1953.00	9932.45
1954.00	9895.00
1955.00	9913.73
1956.00	9888.76
1957.00	9806.06
1958.00	9690.60
1959.00	9582.15
1960.00	9522.08
1961.00	9480.73
1962.00	9428.46
1963.00	9339.52
1964.00	9313.77
1965.00	9292.71
1966.00	9358.24
1967.00	9362.92
1968.00	9419.88
1969.00	9408.17
1970.00	9375.41
1971.00	9287.25
1972.00	9224.83
1973.00	9249.80
1974.00	9239.65
1975.00	9310.65
1976.00	9242.78
1977.00	9246.68
1978.00	9215.47
1979.00	9268.52
1980.00	9337.96
1981.00	9281.00
1982.00	9288.81
1983.00	9234.19
1984.00	9312.21
1985.00	9260.72
1986.00	9198.31
1987.00	9084.40
1988.00	9057.87
1989.00	9017.30
1990.00	8933.04
1991.00	8819.92
1992.00	8684.95
1993.00	8671.68
1994.00	8669.34
1995.00	8675.59
1996.00	8532.03
1997.00	8396.28
1998.00	8288.62
1999.00	8256.63
2000.00	8262.87
2001.00	8193.44
2002.00	8192.66
2003.00	8108.40
2004.00	8045.98
2005.00	7997.61
2006.00	7969.52
2007.00	7964.06
2008.00	7884.48
2009.00	7841.57
2010.00	7872.78
2011.00	7806.47
2012.00	7835.33
2013.00	7772.92
2014.00	7744.05
2015.00	7608.30
2016.00	7581.00
2017.00	7557.59
2018.00	7556.03
2019.00	7479.57
2020.00	7495.96
2021.00	7451.49
2022.00	7410.14
2023.00	7356.30
2024.00	7263.46
2025.00	7224.45
2026.00	7148.00
2027.00	7155.80
2028.00	7165.16
2029.00	7204.95
2030.00	7272.82
2031.00	7323.54
2032.00	7312.61
2033.00	7261.90
2034.00	7211.97
2035.00	7166.72
2036.00	7133.95
2037.00	7094.94
2038.00	7059.84
2039.00	7042.67
2040.00	7045.01
2041.00	7089.48
2042.00	7079.34
2043.00	7028.63
2044.00	6992.74
2045.00	6920.18
2046.00	6885.08
2047.00	6832.02
>>>>>End Processed Spectral Data<<<<<
