SpectraSuite Data File
++++++++++++++++++++++++++++++++++++
Date: Thu Nov 16 13:32:48 EST 2017
User: cheriyan
Dark Spectrum Present: No
Reference Spectrum Present: No
Number of Sampled Component Spectra: 1
Spectrometers: USB2+H05261
Integration Time (usec): 90000 (USB2+H05261)
Spectra Averaged: 1 (USB2+H05261)
Boxcar Smoothing: 1 (USB2+H05261)
Correct for Electrical Dark: No (USB2+H05261)
Strobe/Lamp Enabled: No (USB2+H05261)
Correct for Detector Non-linearity: No (USB2+H05261)
Correct for Stray Light: No (USB2+H05261)
Number of Pixels in Processed Spectrum: 2048
>>>>>Begin Processed Spectral Data<<<<<
0.00	463.43
1.00	463.43
2.00	398.67
3.00	353.42
4.00	299.59
5.00	304.27
6.00	279.30
7.00	262.92
8.00	240.30
9.00	243.42
10.00	231.71
11.00	246.54
12.00	241.86
13.00	229.37
14.00	235.61
15.00	236.39
16.00	300.37
17.00	299.59
18.00	300.37
19.00	277.74
20.00	285.55
21.00	312.07
22.00	315.97
23.00	773.16
24.00	2451.32
25.00	4255.87
26.00	5682.82
27.00	5829.49
28.00	5684.38
29.00	5455.01
30.00	5302.09
31.00	5333.30
32.00	5384.01
33.00	5440.97
34.00	5342.66
35.00	5142.94
36.00	4862.85
37.00	4684.97
38.00	4653.77
39.00	4748.17
40.00	4890.94
41.00	4968.18
42.00	4892.50
43.00	4847.25
44.00	4938.53
45.00	5110.17
46.00	5395.72
47.00	5622.75
48.00	5833.40
49.00	5896.59
50.00	5875.52
51.00	5864.60
52.00	5852.12
53.00	5955.88
54.00	6089.29
55.00	6312.42
56.00	6542.58
57.00	6824.22
58.00	7080.12
59.00	7281.41
60.00	7403.89
61.00	7458.51
62.00	7332.12
63.00	7140.97
64.00	6817.20
65.00	6565.20
66.00	6327.25
67.00	6164.19
68.00	6047.94
69.00	6026.88
70.00	6177.45
71.00	6473.14
72.00	6776.63
73.00	7027.85
74.00	7077.78
75.00	7070.76
76.00	6883.52
77.00	6573.00
78.00	6181.35
79.00	5863.82
80.00	5627.43
81.00	5371.53
82.00	5140.60
83.00	4947.11
84.00	4805.12
85.00	4697.46
86.00	4602.27
87.00	4545.32
88.00	4577.31
89.00	4711.50
90.00	4954.13
91.00	5298.19
92.00	5735.87
93.00	6129.08
94.00	6480.94
95.00	6682.23
96.00	6770.39
97.00	6696.27
98.00	6512.93
99.00	6349.09
100.00	6230.51
101.00	6257.03
102.00	6359.24
103.00	6555.06
104.00	6716.56
105.00	6746.98
106.00	6669.75
107.00	6629.18
108.00	6682.23
109.00	6738.40
110.00	6720.46
111.00	6714.22
112.00	6646.34
113.00	6675.99
114.00	6817.20
115.00	7013.03
116.00	7264.24
117.00	7496.74
118.00	7847.82
119.00	8252.73
120.00	8517.21
121.00	8581.18
122.00	8581.96
123.00	8557.00
124.00	8684.17
125.00	8833.18
126.00	9141.35
127.00	9462.79
128.00	9627.40
129.00	9641.45
130.00	9438.60
131.00	9132.77
132.00	8804.32
133.00	8351.81
134.00	7802.57
135.00	7117.57
136.00	6348.31
137.00	5570.47
138.00	4940.09
139.00	4736.46
140.00	4959.60
141.00	5518.98
142.00	6202.42
143.00	7027.07
144.00	7802.57
145.00	8496.14
146.00	9030.57
147.00	9590.74
148.00	9941.04
149.00	10249.21
150.00	10164.95
151.00	9983.16
152.00	9437.82
153.00	8734.88
154.00	7854.84
155.00	6947.49
156.00	6193.06
157.00	5889.57
158.00	6178.23
159.00	6951.39
160.00	8026.48
161.00	9252.92
162.00	10496.52
163.00	11384.37
164.00	11944.53
165.00	12334.62
166.00	12785.57
167.00	13245.87
168.00	13588.37
169.00	13883.28
170.00	13944.13
171.00	13987.82
172.00	14076.76
173.00	14203.15
174.00	14346.70
175.00	14388.05
176.00	14486.36
177.00	14587.00
178.00	14802.33
179.00	15122.20
180.00	15345.33
181.00	15493.57
182.00	15634.00
183.00	15867.27
184.00	15934.37
185.00	15920.32
186.00	15846.21
187.00	15719.82
188.00	15421.79
189.00	15125.32
190.00	15016.10
191.00	15279.02
192.00	15612.15
193.00	15946.85
194.00	15996.78
195.00	15759.61
196.00	15482.64
197.00	15231.43
198.00	15335.19
199.00	15359.38
200.00	15600.45
201.00	15698.75
202.00	15829.04
203.00	15674.57
204.00	15454.56
205.00	15163.55
206.00	14965.39
207.00	15041.06
208.00	15267.31
209.00	15503.71
210.00	15632.44
211.00	15661.30
212.00	15687.05
213.00	15747.12
214.00	16038.91
215.00	16345.52
216.00	16607.66
217.00	16940.80
218.00	17199.04
219.00	17500.97
220.00	17611.75
221.00	17653.88
222.00	17382.38
223.00	16659.15
224.00	16071.68
225.00	15455.34
226.00	15292.28
227.00	15379.66
228.00	15855.57
229.00	16499.22
230.00	17130.38
231.00	17762.33
232.00	18306.89
233.00	18594.00
234.00	18724.29
235.00	18853.80
236.00	19099.55
237.00	19023.09
238.00	18881.88
239.00	18549.53
240.00	18473.07
241.00	18303.77
242.00	18275.68
243.00	18436.40
244.00	18818.69
245.00	19140.90
246.00	19340.63
247.00	19306.30
248.00	19221.26
249.00	19070.68
250.00	19151.82
251.00	19257.15
252.00	19387.44
253.00	19332.82
254.00	19470.92
255.00	19758.80
256.00	20205.06
257.00	20629.48
258.00	20950.14
259.00	21003.19
260.00	20926.73
261.00	20689.56
262.00	20288.54
263.00	19927.32
264.00	19601.21
265.00	19761.14
266.00	19811.85
267.00	20042.79
268.00	20050.59
269.00	20190.24
270.00	20182.44
271.00	20274.50
272.00	20478.13
273.00	20797.22
274.00	20808.14
275.00	20651.33
276.00	20289.32
277.00	20008.46
278.00	19842.28
279.00	19986.61
280.00	20651.33
281.00	21360.51
282.00	21990.89
283.00	22185.16
284.00	22242.11
285.00	22182.04
286.00	22198.42
287.00	21906.63
288.00	21563.36
289.00	20999.29
290.00	20511.67
291.00	19922.64
292.00	19605.89
293.00	19621.49
294.00	20172.30
295.00	20699.70
296.00	20961.06
297.00	20900.98
298.00	20850.27
299.00	20922.05
300.00	21053.12
301.00	20801.90
302.00	20719.20
303.00	20617.00
304.00	20692.68
305.00	20636.50
306.00	20400.11
307.00	20200.38
308.00	20062.29
309.00	20127.83
310.00	20378.26
311.00	20688.00
312.00	20683.31
313.00	20595.15
314.00	19949.17
315.00	19382.76
316.00	18972.38
317.00	19094.87
318.00	19492.76
319.00	19830.58
320.00	20200.38
321.00	20347.84
322.00	20290.10
323.00	19996.76
324.00	19701.07
325.00	19513.05
326.00	19353.11
327.00	19278.99
328.00	18777.34
329.00	18024.47
330.00	17107.76
331.00	16196.51
332.00	15419.45
333.00	14718.85
334.00	14486.36
335.00	14793.75
336.00	15552.08
337.00	16900.23
338.00	18592.44
339.00	20455.50
340.00	21937.84
341.00	22605.67
342.00	22369.28
343.00	21665.56
344.00	21039.08
345.00	21138.94
346.00	21705.35
347.00	22370.06
348.00	22703.98
349.00	22506.59
350.00	21775.56
351.00	20760.55
352.00	20010.80
353.00	20065.41
354.00	20645.87
355.00	21414.34
356.00	22023.66
357.00	22449.64
358.00	22539.36
359.00	22744.55
360.00	22959.09
361.00	23535.65
362.00	23891.41
363.00	24285.40
364.00	24447.68
365.00	24636.48
366.00	24558.46
367.00	24535.84
368.00	24213.62
369.00	23756.44
370.00	23355.43
371.00	23050.38
372.00	22897.46
373.00	22416.09
374.00	21797.41
375.00	21271.57
376.00	20991.48
377.00	21169.37
378.00	21631.23
379.00	22326.37
380.00	23069.10
381.00	23799.35
382.00	24306.46
383.00	24639.60
384.00	24550.66
385.00	24258.87
386.00	23914.03
387.00	23992.83
388.00	24508.53
389.00	25152.96
390.00	25891.01
391.00	26271.73
392.00	26743.74
393.00	27036.31
394.00	27402.21
395.00	27620.66
396.00	27669.81
397.00	27944.44
398.00	28023.23
399.00	28217.50
400.00	28047.42
401.00	27946.00
402.00	27818.83
403.00	28113.73
404.00	28529.57
405.00	28746.46
406.00	28749.58
407.00	28554.54
408.00	28326.72
409.00	28285.37
410.00	28374.31
411.00	28561.56
412.00	28257.29
413.00	27496.61
414.00	26844.38
415.00	26364.57
416.00	26330.25
417.00	26390.32
418.00	26817.86
419.00	27120.57
420.00	27625.34
421.00	28048.20
422.00	28690.29
423.00	29057.75
424.00	29326.91
425.00	29519.62
426.00	29439.26
427.00	29138.89
428.00	28819.80
429.00	28778.45
430.00	28816.68
431.00	28733.20
432.00	28705.89
433.00	28695.75
434.00	28975.83
435.00	29100.66
436.00	29341.74
437.00	29481.39
438.00	29724.02
439.00	30076.66
440.00	30638.39
441.00	31144.73
442.00	31512.19
443.00	31562.12
444.00	31474.74
445.00	31136.93
446.00	30803.79
447.00	30560.37
448.00	30516.68
449.00	30297.45
450.00	30018.15
451.00	29677.21
452.00	29117.82
453.00	28541.27
454.00	28096.57
455.00	28123.10
456.00	28518.65
457.00	29056.19
458.00	29516.50
459.00	29801.26
460.00	29959.64
461.00	30136.74
462.00	30194.47
463.00	29986.94
464.00	29757.57
465.00	29593.73
466.00	29665.51
467.00	30144.54
468.00	30406.68
469.00	30848.26
470.00	31158.77
471.00	31640.14
472.00	31611.28
473.00	31349.92
474.00	31341.33
475.00	31597.23
476.00	32009.95
477.00	32256.48
478.00	32489.76
479.00	32562.31
480.00	32195.63
481.00	31884.34
482.00	31328.07
483.00	30955.15
484.00	30941.88
485.00	31178.28
486.00	31602.69
487.00	31570.71
488.00	31435.74
489.00	31390.48
490.00	31328.85
491.00	31331.19
492.00	31296.86
493.00	31381.12
494.00	31625.32
495.00	31799.30
496.00	32168.32
497.00	32436.70
498.00	32679.34
499.00	32789.34
500.00	32687.14
501.00	32822.11
502.00	32945.38
503.00	33087.37
504.00	33169.29
505.00	33032.76
506.00	33241.07
507.00	33372.14
508.00	33516.47
509.00	33507.11
510.00	33415.83
511.00	33231.71
512.00	33042.12
513.00	32914.95
514.00	32853.32
515.00	32672.32
516.00	32336.84
517.00	32208.89
518.00	32095.77
519.00	31927.25
520.00	32108.25
521.00	32256.48
522.00	32410.96
523.00	32523.30
524.00	32662.18
525.00	32960.20
526.00	32666.86
527.00	32329.82
528.00	31663.55
529.00	31204.80
530.00	30882.59
531.00	31170.47
532.00	31400.63
533.00	31787.60
534.00	31844.55
535.00	32190.95
536.00	32139.46
537.00	32084.06
538.00	31888.24
539.00	32093.43
540.00	32446.85
541.00	32634.87
542.00	32598.98
543.00	32538.13
544.00	32556.85
545.00	32501.46
546.00	32122.29
547.00	31705.68
548.00	31374.10
549.00	31443.54
550.00	31478.64
551.00	31551.20
552.00	31647.94
553.00	31783.69
554.00	32114.49
555.00	32666.86
556.00	33208.30
557.00	33941.67
558.00	34310.69
559.00	34728.87
560.00	34825.61
561.00	34692.98
562.00	34336.44
563.00	33872.23
564.00	33556.26
565.00	33613.99
566.00	33903.44
567.00	33972.88
568.00	34094.58
569.00	34014.23
570.00	34601.70
571.00	35227.40
572.00	35570.68
573.00	35548.06
574.00	35358.47
575.00	35390.46
576.00	35484.08
577.00	35231.30
578.00	35396.70
579.00	35285.92
580.00	35378.76
581.00	35037.82
582.00	35023.00
583.00	35054.98
584.00	35413.09
585.00	35798.49
586.00	36476.47
587.00	36735.49
588.00	36924.29
589.00	37207.50
590.00	37913.56
591.00	38369.18
592.00	38526.78
593.00	38560.33
594.00	38488.55
595.00	38364.50
596.00	38350.46
597.00	38745.23
598.00	39449.73
599.00	40030.96
600.00	40467.86
601.00	40444.46
602.00	40376.58
603.00	40343.03
604.00	40513.89
605.00	40918.81
606.00	41021.79
607.00	41401.74
608.00	41416.56
609.00	41806.65
610.00	41984.53
611.00	42275.54
612.00	42614.91
613.00	42815.42
614.00	42998.76
615.00	43064.30
616.00	43169.62
617.00	43287.43
618.00	43490.27
619.00	43463.75
620.00	43593.26
621.00	43752.41
622.00	44164.35
623.00	44460.04
624.00	44250.95
625.00	44014.55
626.00	43836.67
627.00	44039.52
628.00	44372.66
629.00	44769.77
630.00	45179.36
631.00	45034.25
632.00	44225.20
633.00	43195.37
634.00	41986.09
635.00	40373.46
636.00	38569.69
637.00	37715.39
638.00	37949.45
639.00	39074.46
640.00	40211.96
641.00	41503.94
642.00	42404.27
643.00	43317.07
644.00	44143.28
645.00	45027.23
646.00	45894.78
647.00	46553.26
648.00	47115.76
649.00	47367.76
650.00	47371.66
651.00	47258.54
652.00	46822.42
653.00	46884.83
654.00	47161.01
655.00	48146.38
656.00	49123.16
657.00	49936.89
658.00	50376.13
659.00	50669.48
660.00	50944.10
661.00	51013.54
662.00	50788.06
663.00	50475.21
664.00	50405.78
665.00	50378.47
666.00	50582.88
667.00	50393.29
668.00	50019.59
669.00	49350.20
670.00	48980.39
671.00	48963.23
672.00	49584.25
673.00	50511.88
674.00	51402.07
675.00	51914.64
676.00	52037.13
677.00	52036.35
678.00	51749.24
679.00	51579.95
680.00	51584.63
681.00	51937.27
682.00	52502.12
683.00	53008.45
684.00	53481.24
685.00	53826.86
686.00	54160.78
687.00	54288.73
688.00	54062.47
689.00	53680.97
690.00	53252.65
691.00	53132.50
692.00	53134.06
693.00	53461.74
694.00	53887.71
695.00	54351.92
696.00	54582.85
697.00	54607.04
698.00	54732.65
699.00	54844.21
700.00	55000.25
701.00	54972.94
702.00	54795.84
703.00	54453.34
704.00	53965.73
705.00	53504.65
706.00	53268.25
707.00	53473.44
708.00	53954.81
709.00	54568.03
710.00	54915.21
711.00	55196.85
712.00	55257.71
713.00	55282.67
714.00	55050.96
715.00	54767.76
716.00	54381.57
717.00	54223.97
718.00	53911.12
719.00	53857.29
720.00	53735.58
721.00	53703.59
722.00	53606.07
723.00	53510.89
724.00	53418.05
725.00	53378.26
726.00	53359.53
727.00	53644.30
728.00	53845.58
729.00	54233.33
730.00	54444.76
731.00	54692.86
732.00	54845.77
733.00	55006.49
734.00	54963.58
735.00	54695.98
736.00	54160.78
737.00	53723.88
738.00	53448.47
739.00	53574.86
740.00	53898.64
741.00	54479.09
742.00	54841.09
743.00	55075.93
744.00	55175.01
745.00	55485.52
746.00	55841.28
747.00	56268.82
748.00	56475.57
749.00	56633.16
750.00	56445.92
751.00	56249.31
752.00	56119.02
753.00	55976.25
754.00	55928.66
755.00	55710.21
756.00	55660.28
757.00	55423.11
758.00	55298.28
759.00	55037.70
760.00	54866.06
761.00	54695.98
762.00	54704.56
763.00	55016.63
764.00	55441.83
765.00	55917.74
766.00	56388.97
767.00	56669.05
768.00	56747.07
769.00	56545.00
770.00	56318.75
771.00	56045.69
772.00	56035.55
773.00	55985.61
774.00	56151.79
775.00	56083.14
776.00	56044.13
777.00	56090.94
778.00	56180.66
779.00	56582.45
780.00	56785.30
781.00	57077.86
782.00	57165.24
783.00	57233.90
784.00	56944.45
785.00	56492.73
786.00	56026.96
787.00	55786.67
788.00	55753.12
789.00	55860.79
790.00	56051.15
791.00	56120.59
792.00	56059.73
793.00	55847.52
794.00	55659.50
795.00	55420.76
796.00	55423.89
797.00	55373.17
798.00	55547.93
799.00	55554.18
800.00	55710.21
801.00	55826.46
802.00	56026.18
803.00	56164.28
804.00	56309.39
805.00	56568.41
806.00	56679.97
807.00	56382.73
808.00	55693.05
809.00	54500.93
810.00	53278.39
811.00	51771.87
812.00	50720.19
813.00	50127.25
814.00	50768.56
815.00	52040.25
816.00	53457.06
817.00	54151.41
818.00	54114.75
819.00	53517.13
820.00	52917.17
821.00	52721.35
822.00	53074.77
823.00	53712.95
824.00	54264.54
825.00	54696.76
826.00	54944.86
827.00	55365.37
828.00	55700.07
829.00	56083.92
830.00	56295.35
831.00	56335.91
832.00	56139.31
833.00	55886.53
834.00	55794.47
835.00	55907.60
836.00	56112.00
837.00	56408.47
838.00	56584.79
839.00	56700.26
840.00	56811.82
841.00	56895.30
842.00	56930.41
843.00	56742.39
844.00	56344.50
845.00	55872.49
846.00	55506.58
847.00	55496.44
848.00	55689.93
849.00	56051.15
850.00	56438.12
851.00	56764.23
852.00	57007.65
853.00	57240.92
854.00	57413.34
855.00	57487.46
856.00	57373.55
857.00	57274.47
858.00	57180.85
859.00	57086.45
860.00	57014.67
861.00	57041.98
862.00	57194.11
863.00	57277.59
864.00	57156.66
865.00	56536.42
866.00	55710.21
867.00	54643.71
868.00	53783.17
869.00	53243.29
870.00	53067.75
871.00	53276.05
872.00	53690.33
873.00	54333.20
874.00	55060.32
875.00	55610.35
876.00	55979.37
877.00	56204.06
878.00	56307.05
879.00	56564.51
880.00	56862.53
881.00	57338.44
882.00	57542.07
883.00	57688.74
884.00	57462.49
885.00	57149.64
886.00	56704.94
887.00	56429.54
888.00	56310.17
889.00	56291.44
890.00	56506.77
891.00	56754.87
892.00	57155.10
893.00	57238.58
894.00	57371.99
895.00	57315.82
896.00	57383.69
897.00	57230.78
898.00	57091.13
899.00	56750.97
900.00	56468.54
901.00	56026.96
902.00	55558.08
903.00	55043.16
904.00	54708.46
905.00	54632.00
906.00	54846.55
907.00	55214.80
908.00	55640.00
909.00	56094.84
910.00	56250.88
911.00	56281.30
912.00	55928.66
913.00	55834.26
914.00	55672.76
915.00	55796.81
916.00	55867.03
917.00	56163.49
918.00	56407.69
919.00	56515.36
920.00	56704.94
921.00	56861.75
922.00	57080.99
923.00	57076.30
924.00	56938.21
925.00	56592.59
926.00	56178.32
927.00	55611.13
928.00	55109.47
929.00	54744.35
930.00	54766.98
931.00	55090.75
932.00	55438.71
933.00	55764.04
934.00	55866.25
935.00	55993.42
936.00	56023.84
937.00	56117.46
938.00	56009.80
939.00	55959.87
940.00	55786.67
941.00	55570.56
942.00	55292.82
943.00	54954.22
944.00	54815.35
945.00	54607.04
946.00	54555.55
947.00	54354.26
948.00	54288.73
949.00	54085.88
950.00	54004.74
951.00	53777.71
952.00	53698.91
953.00	53727.00
954.00	53947.01
955.00	54347.24
956.00	54676.47
957.00	54951.10
958.00	55088.41
959.00	55078.27
960.00	54936.27
961.00	54656.19
962.00	54620.30
963.00	54535.26
964.00	54562.57
965.00	54356.60
966.00	54401.85
967.00	54472.85
968.00	54777.90
969.00	54895.70
970.00	55248.35
971.00	55498.00
972.00	55667.30
973.00	55415.30
974.00	55148.48
975.00	55091.53
976.00	55058.76
977.00	55079.05
978.00	54974.50
979.00	54991.67
980.00	54820.03
981.00	54843.43
982.00	54806.76
983.00	54834.85
984.00	54790.38
985.00	54588.31
986.00	54585.97
987.00	54478.31
988.00	54724.07
989.00	54627.32
990.00	54539.94
991.00	54094.46
992.00	53869.77
993.00	53588.91
994.00	53702.81
995.00	53923.60
996.00	54199.79
997.00	54465.83
998.00	54584.41
999.00	54816.13
1000.00	54759.95
1001.00	54730.31
1002.00	54603.14
1003.00	54597.68
1004.00	54665.55
1005.00	54628.88
1006.00	54663.21
1007.00	54561.01
1008.00	54620.30
1009.00	54323.05
1010.00	54216.17
1011.00	53973.53
1012.00	54087.44
1013.00	53998.50
1014.00	53998.50
1015.00	53897.86
1016.00	54026.59
1017.00	54301.21
1018.00	54605.48
1019.00	54693.64
1020.00	54482.99
1021.00	54171.70
1022.00	53840.90
1023.00	53613.09
1024.00	53493.72
1025.00	53479.68
1026.00	53729.34
1027.00	53909.56
1028.00	54090.56
1029.00	53993.04
1030.00	54107.72
1031.00	54277.02
1032.00	54435.40
1033.00	54553.21
1034.00	54499.37
1035.00	54422.92
1036.00	54428.38
1037.00	54340.22
1038.00	54336.32
1039.00	54118.65
1040.00	54053.11
1041.00	53881.47
1042.00	53644.30
1043.00	53445.35
1044.00	53338.47
1045.00	53278.39
1046.00	53120.02
1047.00	52864.90
1048.00	52704.96
1049.00	52583.26
1050.00	52627.73
1051.00	52682.34
1052.00	52945.26
1053.00	53208.18
1054.00	53372.80
1055.00	53219.10
1056.00	53066.97
1057.00	52633.19
1058.00	52103.45
1059.00	51513.63
1060.00	51295.96
1061.00	51254.61
1062.00	51356.03
1063.00	51399.72
1064.00	51554.20
1065.00	51515.97
1066.00	51590.87
1067.00	51474.62
1068.00	51653.28
1069.00	51802.30
1070.00	52199.41
1071.00	52584.04
1072.00	52979.59
1073.00	53099.73
1074.00	52880.50
1075.00	52304.73
1076.00	51887.34
1077.00	51635.34
1078.00	51619.73
1079.00	51604.91
1080.00	51604.91
1081.00	51672.79
1082.00	51810.88
1083.00	51922.44
1084.00	52066.78
1085.00	52249.34
1086.00	52357.78
1087.00	52197.07
1088.00	51862.37
1089.00	51656.40
1090.00	51562.00
1091.00	51515.97
1092.00	51457.46
1093.00	51564.34
1094.00	51784.35
1095.00	51901.38
1096.00	51784.35
1097.00	51605.69
1098.00	51340.43
1099.00	51125.10
1100.00	50749.84
1101.00	50379.25
1102.00	49961.08
1103.00	49898.66
1104.00	49844.83
1105.00	50150.66
1106.00	50325.42
1107.00	50523.58
1108.00	50619.55
1109.00	50695.22
1110.00	50967.51
1111.00	51036.94
1112.00	51046.30
1113.00	51026.02
1114.00	50976.87
1115.00	50741.25
1116.00	50351.94
1117.00	49860.43
1118.00	49578.01
1119.00	49235.51
1120.00	49180.90
1121.00	49028.76
1122.00	49081.81
1123.00	49128.62
1124.00	49363.46
1125.00	49344.73
1126.00	49258.91
1127.00	49020.96
1128.00	48811.09
1129.00	48590.30
1130.00	48319.58
1131.00	47980.20
1132.00	47529.26
1133.00	47257.76
1134.00	47015.12
1135.00	47013.56
1136.00	47170.38
1137.00	47531.60
1138.00	47888.92
1139.00	48137.80
1140.00	48521.65
1141.00	48921.10
1142.00	49200.40
1143.00	49308.85
1144.00	49161.39
1145.00	49061.53
1146.00	49021.74
1147.00	48971.81
1148.00	48814.21
1149.00	48577.04
1150.00	48495.12
1151.00	48421.78
1152.00	48386.67
1153.00	48242.34
1154.00	47994.25
1155.00	47702.46
1156.00	47400.53
1157.00	47324.85
1158.00	47122.79
1159.00	46929.30
1160.00	46620.35
1161.00	46387.86
1162.00	46281.75
1163.00	46152.24
1164.00	46118.70
1165.00	46331.68
1166.00	46448.71
1167.00	46801.35
1168.00	46837.24
1169.00	47067.39
1170.00	46978.45
1171.00	46909.02
1172.00	46702.27
1173.00	46529.07
1174.00	46533.75
1175.00	46323.10
1176.00	46194.37
1177.00	45762.93
1178.00	45606.12
1179.00	45265.96
1180.00	45094.32
1181.00	45056.09
1182.00	45255.82
1183.00	45440.72
1184.00	45553.07
1185.00	45617.04
1186.00	45677.90
1187.00	45979.82
1188.00	46087.49
1189.00	46163.95
1190.00	46207.64
1191.00	46305.16
1192.00	46271.61
1193.00	46014.15
1194.00	45818.33
1195.00	45872.16
1196.00	45985.29
1197.00	46096.85
1198.00	46117.14
1199.00	46131.96
1200.00	46247.43
1201.00	46425.31
1202.00	46467.44
1203.00	46496.30
1204.00	46514.25
1205.00	46603.97
1206.00	46586.02
1207.00	46614.89
1208.00	46574.32
1209.00	46613.33
1210.00	46641.42
1211.00	46579.78
1212.00	46678.86
1213.00	46538.43
1214.00	46415.16
1215.00	46202.18
1216.00	45992.31
1217.00	46032.10
1218.00	46018.83
1219.00	46085.15
1220.00	45807.40
1221.00	45515.62
1222.00	45262.84
1223.00	45032.69
1224.00	44573.94
1225.00	44221.30
1226.00	44253.29
1227.00	44215.84
1228.00	44312.58
1229.00	44185.41
1230.00	44438.97
1231.00	44488.90
1232.00	44566.92
1233.00	44659.76
1234.00	44744.80
1235.00	44720.62
1236.00	44679.27
1237.00	44357.83
1238.00	44258.75
1239.00	44104.27
1240.00	43973.20
1241.00	43573.75
1242.00	42844.29
1243.00	42019.64
1244.00	40758.87
1245.00	39414.62
1246.00	38337.98
1247.00	37816.82
1248.00	37613.97
1249.00	37901.08
1250.00	38191.30
1251.00	38772.53
1252.00	39491.86
1253.00	40495.95
1254.00	41421.24
1255.00	42049.28
1256.00	42416.75
1257.00	42774.07
1258.00	42772.51
1259.00	42428.45
1260.00	42174.11
1261.00	41855.80
1262.00	41950.20
1263.00	41848.78
1264.00	41839.42
1265.00	41851.12
1266.00	41679.48
1267.00	41713.81
1268.00	41840.98
1269.00	41981.41
1270.00	41864.38
1271.00	41684.16
1272.00	41763.74
1273.00	41941.62
1274.00	42070.35
1275.00	41969.71
1276.00	41799.63
1277.00	41490.68
1278.00	41226.20
1279.00	41134.14
1280.00	40838.45
1281.00	40675.39
1282.00	40372.68
1283.00	40473.32
1284.00	40557.58
1285.00	40705.82
1286.00	40825.18
1287.00	40846.25
1288.00	41025.69
1289.00	41199.67
1290.00	41456.35
1291.00	41502.38
1292.00	41548.41
1293.00	41379.89
1294.00	41348.68
1295.00	41226.20
1296.00	41349.46
1297.00	41283.15
1298.00	41223.86
1299.00	40988.24
1300.00	40747.95
1301.00	40666.81
1302.00	40560.70
1303.00	40585.67
1304.00	40340.69
1305.00	40403.11
1306.00	40382.04
1307.00	40382.82
1308.00	40275.94
1309.00	40154.23
1310.00	40434.31
1311.00	40570.85
1312.00	40802.56
1313.00	40633.26
1314.00	40616.10
1315.00	40573.19
1316.00	40561.48
1317.00	40475.66
1318.00	40308.71
1319.00	40190.12
1320.00	39970.11
1321.00	39755.56
1322.00	39576.90
1323.00	39431.01
1324.00	39587.82
1325.00	39607.33
1326.00	39648.67
1327.00	39377.95
1328.00	39174.33
1329.00	39149.36
1330.00	39188.37
1331.00	39307.74
1332.00	39273.41
1333.00	39434.91
1334.00	39623.71
1335.00	39977.91
1336.00	40101.96
1337.00	40359.42
1338.00	40275.94
1339.00	40344.59
1340.00	39957.63
1341.00	40045.79
1342.00	39886.63
1343.00	40142.53
1344.00	40070.75
1345.00	40102.74
1346.00	39868.69
1347.00	39758.68
1348.00	39540.23
1349.00	39531.65
1350.00	39303.06
1351.00	39418.52
1352.00	39257.81
1353.00	39301.50
1354.00	39124.40
1355.00	39061.20
1356.00	38986.30
1357.00	38806.08
1358.00	38807.64
1359.00	38841.19
1360.00	39021.41
1361.00	39172.77
1362.00	39152.48
1363.00	39123.61
1364.00	38656.29
1365.00	38501.03
1366.00	38255.28
1367.00	38278.68
1368.00	38140.59
1369.00	38077.40
1370.00	38117.96
1371.00	37903.42
1372.00	37822.28
1373.00	37613.97
1374.00	37755.96
1375.00	37762.98
1376.00	37855.04
1377.00	37671.70
1378.00	37514.89
1379.00	37198.91
1380.00	37073.31
1381.00	37074.87
1382.00	37145.86
1383.00	37177.85
1384.00	36930.53
1385.00	36956.28
1386.00	36959.40
1387.00	37283.17
1388.00	37405.66
1389.00	37361.19
1390.00	37135.72
1391.00	36887.62
1392.00	36677.76
1393.00	36590.38
1394.00	36446.82
1395.00	36377.39
1396.00	36353.98
1397.00	36300.93
1398.00	36378.95
1399.00	36297.03
1400.00	36456.96
1401.00	36359.44
1402.00	36069.22
1403.00	35683.81
1404.00	35315.56
1405.00	35218.82
1406.00	35085.41
1407.00	35257.83
1408.00	35392.02
1409.00	35615.93
1410.00	35682.25
1411.00	35765.73
1412.00	35782.89
1413.00	35672.88
1414.00	35462.24
1415.00	35246.13
1416.00	35156.41
1417.00	34922.35
1418.00	34636.81
1419.00	34293.53
1420.00	34059.48
1421.00	33858.19
1422.00	33824.64
1423.00	33594.49
1424.00	33605.41
1425.00	33666.27
1426.00	33986.92
1427.00	34222.53
1428.00	34321.62
1429.00	34458.93
1430.00	34579.07
1431.00	34651.63
1432.00	34862.28
1433.00	34920.79
1434.00	35027.68
1435.00	34966.82
1436.00	34779.58
1437.00	34405.09
1438.00	34068.84
1439.00	33990.04
1440.00	33943.23
1441.00	34058.70
1442.00	34096.92
1443.00	34273.24
1444.00	34210.83
1445.00	34236.58
1446.00	34358.28
1447.00	34410.56
1448.00	34432.40
1449.00	34269.34
1450.00	34323.96
1451.00	34088.34
1452.00	33979.12
1453.00	33660.80
1454.00	33539.88
1455.00	33435.33
1456.00	33150.57
1457.00	33088.93
1458.00	33003.11
1459.00	33185.68
1460.00	33236.39
1461.00	33178.65
1462.00	32942.26
1463.00	32520.18
1464.00	32339.96
1465.00	32265.85
1466.00	32312.66
1467.00	32263.50
1468.00	32148.82
1469.00	32209.67
1470.00	32166.76
1471.00	32219.03
1472.00	32020.87
1473.00	31851.57
1474.00	31793.06
1475.00	31754.83
1476.00	31545.74
1477.00	31406.87
1478.00	31123.66
1479.00	31050.33
1480.00	30795.99
1481.00	30707.83
1482.00	30713.29
1483.00	30676.62
1484.00	30818.61
1485.00	30852.94
1486.00	31101.04
1487.00	31189.20
1488.00	31164.23
1489.00	31150.19
1490.00	31143.95
1491.00	31012.10
1492.00	30742.94
1493.00	30401.22
1494.00	30006.45
1495.00	29398.69
1496.00	28675.46
1497.00	28339.99
1498.00	28233.88
1499.00	28380.56
1500.00	28582.62
1501.00	28941.50
1502.00	29266.84
1503.00	29379.18
1504.00	29399.47
1505.00	29463.44
1506.00	29309.75
1507.00	29205.98
1508.00	28961.79
1509.00	28820.58
1510.00	28687.17
1511.00	28497.58
1512.00	28499.92
1513.00	28476.52
1514.00	28655.96
1515.00	28843.20
1516.00	28846.32
1517.00	28893.13
1518.00	28888.45
1519.00	28904.06
1520.00	28787.81
1521.00	28455.45
1522.00	28162.89
1523.00	28048.20
1524.00	28082.53
1525.00	28351.69
1526.00	28512.41
1527.00	28772.21
1528.00	28944.62
1529.00	29033.57
1530.00	29049.17
1531.00	29015.62
1532.00	28932.92
1533.00	28836.18
1534.00	28627.09
1535.00	28556.88
1536.00	28471.84
1537.00	28545.95
1538.00	28560.78
1539.00	28602.13
1540.00	28481.98
1541.00	28478.08
1542.00	28557.66
1543.00	28641.14
1544.00	28631.77
1545.00	28761.28
1546.00	28820.58
1547.00	28746.46
1548.00	28571.70
1549.00	28418.78
1550.00	28436.73
1551.00	28225.30
1552.00	28138.70
1553.00	28126.22
1554.00	28103.59
1555.00	28076.29
1556.00	28061.46
1557.00	28285.37
1558.00	28567.80
1559.00	28664.54
1560.00	28662.20
1561.00	28494.46
1562.00	28456.23
1563.00	28424.25
1564.00	28354.81
1565.00	28293.96
1566.00	28210.48
1567.00	28290.06
1568.00	28347.01
1569.00	28376.66
1570.00	28302.54
1571.00	28063.02
1572.00	27896.85
1573.00	27760.31
1574.00	27669.03
1575.00	27608.18
1576.00	27506.76
1577.00	27278.16
1578.00	27196.24
1579.00	27156.46
1580.00	27335.12
1581.00	27179.86
1582.00	27154.90
1583.00	27090.92
1584.00	27048.01
1585.00	26923.18
1586.00	26704.73
1587.00	26506.57
1588.00	26478.48
1589.00	26459.76
1590.00	26533.09
1591.00	26586.93
1592.00	26546.36
1593.00	26560.40
1594.00	26508.13
1595.00	26522.95
1596.00	26741.40
1597.00	26591.61
1598.00	26718.78
1599.00	26518.27
1600.00	26671.18
1601.00	26533.87
1602.00	26569.76
1603.00	26263.15
1604.00	26318.54
1605.00	26267.83
1606.00	26494.86
1607.00	26281.10
1608.00	26221.02
1609.00	26158.61
1610.00	26242.09
1611.00	26117.26
1612.00	25816.11
1613.00	25754.47
1614.00	25765.40
1615.00	25985.41
1616.00	25901.93
1617.00	25706.10
1618.00	25415.10
1619.00	25163.88
1620.00	24998.48
1621.00	24890.82
1622.00	25032.03
1623.00	25104.59
1624.00	25252.82
1625.00	25142.03
1626.00	25178.70
1627.00	24915.00
1628.00	24747.26
1629.00	24488.24
1630.00	24529.59
1631.00	24464.84
1632.00	24489.03
1633.00	24459.38
1634.00	24425.83
1635.00	24428.17
1636.00	24478.88
1637.00	24585.77
1638.00	24516.33
1639.00	24222.20
1640.00	23875.80
1641.00	23502.10
1642.00	23225.14
1643.00	23010.59
1644.00	23016.05
1645.00	23212.65
1646.00	23592.60
1647.00	23920.27
1648.00	24277.60
1649.00	24401.65
1650.00	24542.86
1651.00	24561.58
1652.00	24652.08
1653.00	24645.84
1654.00	24575.62
1655.00	24293.20
1656.00	23942.90
1657.00	23555.93
1658.00	23312.52
1659.00	23298.47
1660.00	23463.09
1661.00	23690.12
1662.00	23857.86
1663.00	23914.81
1664.00	23950.70
1665.00	24059.15
1666.00	24101.28
1667.00	24108.30
1668.00	24004.53
1669.00	23926.52
1670.00	23901.55
1671.00	23870.34
1672.00	23790.77
1673.00	23807.93
1674.00	23778.28
1675.00	23680.76
1676.00	23391.31
1677.00	23151.80
1678.00	22984.06
1679.00	22958.31
1680.00	22806.96
1681.00	22700.86
1682.00	22500.35
1683.00	22255.37
1684.00	21914.44
1685.00	21439.31
1686.00	20874.46
1687.00	20113.78
1688.00	19281.33
1689.00	18566.69
1690.00	18263.98
1691.00	18450.44
1692.00	18842.87
1693.00	19354.67
1694.00	19951.51
1695.00	20560.05
1696.00	21163.90
1697.00	21554.77
1698.00	21888.69
1699.00	22029.12
1700.00	22116.50
1701.00	22284.24
1702.00	22503.47
1703.00	22640.00
1704.00	22562.76
1705.00	22470.70
1706.00	22460.56
1707.00	22443.40
1708.00	22404.39
1709.00	22297.50
1710.00	22308.43
1711.00	22238.99
1712.00	22213.24
1713.00	22197.64
1714.00	22246.01
1715.00	22322.47
1716.00	22332.61
1717.00	22338.85
1718.00	22232.75
1719.00	22217.15
1720.00	22065.79
1721.00	22087.64
1722.00	22030.68
1723.00	22054.87
1724.00	22056.43
1725.00	22138.35
1726.00	22160.97
1727.00	22111.04
1728.00	21972.95
1729.00	21869.19
1730.00	21879.33
1731.00	21951.10
1732.00	21976.85
1733.00	21857.48
1734.00	21782.59
1735.00	21704.57
1736.00	21710.03
1737.00	21568.82
1738.00	21374.55
1739.00	21185.75
1740.00	20993.83
1741.00	21138.94
1742.00	21188.09
1743.00	21206.03
1744.00	21127.24
1745.00	20964.18
1746.00	21100.71
1747.00	21049.22
1748.00	21128.02
1749.00	20954.82
1750.00	20910.35
1751.00	20907.23
1752.00	20936.09
1753.00	20986.02
1754.00	20965.74
1755.00	20886.94
1756.00	20837.79
1757.00	20800.34
1758.00	20654.45
1759.00	20564.73
1760.00	20457.06
1761.00	20425.86
1762.00	20311.95
1763.00	20124.71
1764.00	20146.55
1765.00	20107.54
1766.00	20148.11
1767.00	20101.30
1768.00	20064.63
1769.00	19967.11
1770.00	19957.75
1771.00	19942.14
1772.00	19836.04
1773.00	19866.47
1774.00	19808.73
1775.00	19830.58
1776.00	19733.84
1777.00	19779.87
1778.00	19932.78
1779.00	19896.89
1780.00	19823.56
1781.00	19735.40
1782.00	19654.26
1783.00	19527.87
1784.00	19494.32
1785.00	19353.11
1786.00	19311.76
1787.00	19126.86
1788.00	19184.59
1789.00	19159.63
1790.00	19146.36
1791.00	19054.30
1792.00	19016.85
1793.00	18954.44
1794.00	18902.95
1795.00	18818.69
1796.00	18735.21
1797.00	18604.92
1798.00	18476.19
1799.00	18476.97
1800.00	18452.00
1801.00	18455.12
1802.00	18402.85
1803.00	18323.27
1804.00	18287.39
1805.00	18185.18
1806.00	18236.67
1807.00	18134.47
1808.00	18158.66
1809.00	18150.07
1810.00	18214.83
1811.00	18114.97
1812.00	18007.30
1813.00	17930.06
1814.00	17958.15
1815.00	17882.47
1816.00	17827.08
1817.00	17668.70
1818.00	17656.22
1819.00	17604.73
1820.00	17556.36
1821.00	17454.16
1822.00	17353.51
1823.00	17351.95
1824.00	17316.84
1825.00	17314.50
1826.00	17180.31
1827.00	17082.79
1828.00	17098.39
1829.00	17316.84
1830.00	17340.25
1831.00	17305.14
1832.00	17092.93
1833.00	17096.05
1834.00	16861.22
1835.00	16824.55
1836.00	16656.81
1837.00	16703.62
1838.00	16684.12
1839.00	16698.94
1840.00	16659.15
1841.00	16594.40
1842.00	16558.51
1843.00	16500.78
1844.00	16416.52
1845.00	16370.49
1846.00	16402.47
1847.00	16304.95
1848.00	16127.85
1849.00	16004.58
1850.00	15966.35
1851.00	15977.28
1852.00	15818.90
1853.00	15740.10
1854.00	15667.55
1855.00	15658.96
1856.00	15595.77
1857.00	15638.68
1858.00	15714.36
1859.00	15758.05
1860.00	15680.03
1861.00	15570.80
1862.00	15609.03
1863.00	15473.28
1864.00	15322.71
1865.00	15137.02
1866.00	15075.39
1867.00	14980.21
1868.00	14836.66
1869.00	14837.44
1870.00	14853.04
1871.00	14917.01
1872.00	14901.41
1873.00	14846.80
1874.00	14794.53
1875.00	14704.81
1876.00	14789.06
1877.00	14719.63
1878.00	14652.53
1879.00	14451.25
1880.00	14340.46
1881.00	14335.78
1882.00	14327.20
1883.00	14285.07
1884.00	14217.19
1885.00	14108.75
1886.00	13976.90
1887.00	13832.57
1888.00	13722.56
1889.00	13767.81
1890.00	13731.14
1891.00	13717.88
1892.00	13645.32
1893.00	13704.62
1894.00	13745.19
1895.00	13644.54
1896.00	13605.53
1897.00	13508.01
1898.00	13538.44
1899.00	13426.09
1900.00	13395.67
1901.00	13323.89
1902.00	13217.01
1903.00	12991.53
1904.00	12535.13
1905.00	11835.31
1906.00	11005.20
1907.00	10136.08
1908.00	9318.45
1909.00	8603.03
1910.00	8205.14
1911.00	8082.65
1912.00	8150.53
1913.00	8379.90
1914.00	8687.29
1915.00	9128.87
1916.00	9554.85
1917.00	9940.26
1918.00	10139.98
1919.00	10192.25
1920.00	10115.80
1921.00	10055.72
1922.00	9935.57
1923.00	9884.08
1924.00	9725.71
1925.00	9707.76
1926.00	9689.82
1927.00	9735.85
1928.00	9745.21
1929.00	9699.18
1930.00	9788.90
1931.00	9855.22
1932.00	10001.11
1933.00	10079.13
1934.00	10097.85
1935.00	10153.24
1936.00	10196.93
1937.00	10242.18
1938.00	10382.62
1939.00	10437.23
1940.00	10455.95
1941.00	10370.91
1942.00	10272.61
1943.00	10287.43
1944.00	10263.25
1945.00	10384.18
1946.00	10386.52
1947.00	10341.27
1948.00	10237.50
1949.00	10225.02
1950.00	10137.64
1951.00	10042.46
1952.00	9983.16
1953.00	10069.76
1954.00	10093.95
1955.00	10028.42
1956.00	9925.43
1957.00	9860.68
1958.00	9815.43
1959.00	9730.39
1960.00	9612.58
1961.00	9525.20
1962.00	9478.39
1963.00	9483.07
1964.00	9408.95
1965.00	9372.29
1966.00	9352.78
1967.00	9353.56
1968.00	9312.99
1969.00	9258.38
1970.00	9297.39
1971.00	9261.50
1972.00	9225.61
1973.00	9224.83
1974.00	9243.56
1975.00	9282.56
1976.00	9213.13
1977.00	9175.68
1978.00	9212.35
1979.00	9280.22
1980.00	9380.09
1981.00	9373.07
1982.00	9372.29
1983.00	9337.96
1984.00	9262.28
1985.00	9153.06
1986.00	9062.55
1987.00	9011.06
1988.00	8970.49
1989.00	8895.60
1990.00	8904.18
1991.00	8785.59
1992.00	8755.94
1993.00	8590.55
1994.00	8545.30
1995.00	8472.74
1996.00	8446.99
1997.00	8361.17
1998.00	8276.13
1999.00	8177.05
2000.00	8182.51
2001.00	8141.16
2002.00	8184.85
2003.00	8155.21
2004.00	8099.03
2005.00	7989.03
2006.00	7979.67
2007.00	7914.13
2008.00	7898.53
2009.00	7810.37
2010.00	7831.43
2011.00	7825.19
2012.00	7770.58
2013.00	7779.94
2014.00	7670.72
2015.00	7684.76
2016.00	7678.52
2017.00	7678.52
2018.00	7569.29
2019.00	7472.55
2020.00	7472.55
2021.00	7456.95
2022.00	7375.81
2023.00	7362.55
2024.00	7340.70
2025.00	7328.22
2026.00	7226.79
2027.00	7231.48
2028.00	7218.21
2029.00	7237.72
2030.00	7253.32
2031.00	7176.86
2032.00	7159.70
2033.00	7065.30
2034.00	7098.06
2035.00	7025.51
2036.00	7064.52
2037.00	7089.48
2038.00	7142.53
2039.00	7127.71
2040.00	7033.31
2041.00	6989.62
2042.00	6938.91
2043.00	6936.57
2044.00	6934.23
2045.00	6879.61
2046.00	6898.34
2047.00	6911.60
>>>>>End Processed Spectral Data<<<<<
