SpectraSuite Data File
++++++++++++++++++++++++++++++++++++
Date: Thu Nov 16 13:32:50 EST 2017
User: cheriyan
Dark Spectrum Present: No
Reference Spectrum Present: No
Number of Sampled Component Spectra: 1
Spectrometers: USB2+H05261
Integration Time (usec): 90000 (USB2+H05261)
Spectra Averaged: 1 (USB2+H05261)
Boxcar Smoothing: 1 (USB2+H05261)
Correct for Electrical Dark: No (USB2+H05261)
Strobe/Lamp Enabled: No (USB2+H05261)
Correct for Detector Non-linearity: No (USB2+H05261)
Correct for Stray Light: No (USB2+H05261)
Number of Pixels in Processed Spectrum: 2048
>>>>>Begin Processed Spectral Data<<<<<
0.00	311.29
1.00	311.29
2.00	319.09
3.00	301.93
4.00	283.98
5.00	281.64
6.00	282.42
7.00	302.71
8.00	300.37
9.00	291.01
10.00	273.84
11.00	245.76
12.00	253.56
13.00	244.20
14.00	254.34
15.00	273.84
16.00	298.81
17.00	317.53
18.00	312.07
19.00	290.23
20.00	292.57
21.00	294.13
22.00	314.41
23.00	722.45
24.00	2344.44
25.00	4175.52
26.00	5558.77
27.00	5695.30
28.00	5538.49
29.00	5339.54
30.00	5140.60
31.00	5110.17
32.00	5173.36
33.00	5244.36
34.00	5212.37
35.00	5056.34
36.00	4896.40
37.00	4681.07
38.00	4628.80
39.00	4694.33
40.00	4822.28
41.00	4912.78
42.00	4801.22
43.00	4738.02
44.00	4778.59
45.00	5065.70
46.00	5426.92
47.00	5678.14
48.00	5844.32
49.00	5785.80
50.00	5746.02
51.00	5683.60
52.00	5798.29
53.00	5870.84
54.00	6033.12
55.00	6175.11
56.00	6434.13
57.00	6700.95
58.00	7015.37
59.00	7225.23
60.00	7329.78
61.00	7339.92
62.00	7187.00
63.00	7002.10
64.00	6636.20
65.00	6438.81
66.00	6179.01
67.00	6095.54
68.00	5996.45
69.00	5993.33
70.00	6144.69
71.00	6378.74
72.00	6680.67
73.00	6941.25
74.00	7095.72
75.00	7034.09
76.00	6789.11
77.00	6466.90
78.00	6175.11
79.00	5928.58
80.00	5698.42
81.00	5515.86
82.00	5264.64
83.00	4959.60
84.00	4720.08
85.00	4521.13
86.00	4482.13
87.00	4489.93
88.00	4545.32
89.00	4636.60
90.00	4848.81
91.00	5252.16
92.00	5723.39
93.00	6111.14
94.00	6420.87
95.00	6580.81
96.00	6612.79
97.00	6486.40
98.00	6303.84
99.00	6182.92
100.00	6156.39
101.00	6242.21
102.00	6458.32
103.00	6614.35
104.00	6711.88
105.00	6594.07
106.00	6482.50
107.00	6457.54
108.00	6473.14
109.00	6602.65
110.00	6629.96
111.00	6700.17
112.00	6592.51
113.00	6601.87
114.00	6684.57
115.00	6904.58
116.00	7127.71
117.00	7425.74
118.00	7796.32
119.00	8139.60
120.00	8432.95
121.00	8535.15
122.00	8592.89
123.00	8559.34
124.00	8594.45
125.00	8784.81
126.00	8961.13
127.00	9318.45
128.00	9504.92
129.00	9595.42
130.00	9349.66
131.00	9022.77
132.00	8603.81
133.00	8224.64
134.00	7635.61
135.00	6938.13
136.00	6121.28
137.00	5373.87
138.00	4817.60
139.00	4564.04
140.00	4777.81
141.00	5357.49
142.00	6144.69
143.00	6927.99
144.00	7674.62
145.00	8414.23
146.00	8993.90
147.00	9530.66
148.00	9745.99
149.00	9948.84
150.00	9969.90
151.00	9789.68
152.00	9362.14
153.00	8512.53
154.00	7605.18
155.00	6688.47
156.00	6045.60
157.00	5784.24
158.00	6081.49
159.00	6844.51
160.00	7942.22
161.00	9077.38
162.00	10210.20
163.00	11113.64
164.00	11790.06
165.00	12283.13
166.00	12646.69
167.00	12961.11
168.00	13275.52
169.00	13574.33
170.00	13778.73
171.00	13879.38
172.00	13905.90
173.00	14053.36
174.00	14064.28
175.00	14175.84
176.00	14240.60
177.00	14495.72
178.00	14717.29
179.00	14974.75
180.00	15067.59
181.00	15150.29
182.00	15247.81
183.00	15443.63
184.00	15608.25
185.00	15649.60
186.00	15619.96
187.00	15645.70
188.00	15392.92
189.00	15165.11
190.00	14934.96
191.00	15064.47
192.00	15339.87
193.00	15664.43
194.00	15733.86
195.00	15563.00
196.00	15228.31
197.00	15092.55
198.00	15193.98
199.00	15345.33
200.00	15506.05
201.00	15577.05
202.00	15611.37
203.00	15466.26
204.00	15161.21
205.00	14966.17
206.00	14935.74
207.00	15044.96
208.00	15238.45
209.00	15385.12
210.00	15531.80
211.00	15350.01
212.00	15296.18
213.00	15396.04
214.00	15755.71
215.00	16060.76
216.00	16290.91
217.00	16666.95
218.00	16983.71
219.00	17347.27
220.00	17465.86
221.00	17410.46
222.00	17057.04
223.00	16466.45
224.00	15962.45
225.00	15379.66
226.00	15105.82
227.00	15171.35
228.00	15575.48
229.00	16226.93
230.00	16840.93
231.00	17515.01
232.00	17934.74
233.00	18306.11
234.00	18422.36
235.00	18648.61
236.00	18594.78
237.00	18616.62
238.00	18519.88
239.00	18409.09
240.00	18300.65
241.00	18180.50
242.00	18268.66
243.00	18268.66
244.00	18558.89
245.00	18756.27
246.00	19069.90
247.00	19008.27
248.00	18937.27
249.00	18881.88
250.00	18963.80
251.00	19027.00
252.00	19063.66
253.00	18980.18
254.00	19062.10
255.00	19326.58
256.00	19847.74
257.00	20333.01
258.00	20678.63
259.00	20682.53
260.00	20603.74
261.00	20308.83
262.00	19949.95
263.00	19512.27
264.00	19292.26
265.00	19410.06
266.00	19568.44
267.00	19798.59
268.00	19867.25
269.00	19980.37
270.00	19914.06
271.00	20015.48
272.00	20280.74
273.00	20588.91
274.00	20510.11
275.00	20320.53
276.00	20016.26
277.00	19816.54
278.00	19595.75
279.00	19713.55
280.00	20237.83
281.00	20813.60
282.00	21356.61
283.00	21634.35
284.00	21727.97
285.00	21790.39
286.00	21824.72
287.00	21699.89
288.00	21281.71
289.00	20840.91
290.00	20212.09
291.00	19687.81
292.00	19169.77
293.00	19475.60
294.00	19859.45
295.00	20341.60
296.00	20535.08
297.00	20535.86
298.00	20652.11
299.00	20751.19
300.00	21051.56
301.00	20825.31
302.00	20532.74
303.00	20317.41
304.00	20350.96
305.00	20407.13
306.00	20173.08
307.00	20078.68
308.00	19816.54
309.00	19797.81
310.00	19988.18
311.00	20315.07
312.00	20507.77
313.00	20293.22
314.00	19797.03
315.00	19229.84
316.00	18949.76
317.00	19005.15
318.00	19325.02
319.00	19592.62
320.00	19947.61
321.00	20077.90
322.00	19989.74
323.00	19740.86
324.00	19476.38
325.00	19290.70
326.00	19111.25
327.00	18944.30
328.00	18388.81
329.00	17697.57
330.00	16794.12
331.00	16031.89
332.00	15301.64
333.00	14784.38
334.00	14624.45
335.00	14862.40
336.00	15505.27
337.00	16741.07
338.00	18448.88
339.00	20307.27
340.00	21694.43
341.00	22129.77
342.00	21774.78
343.00	21165.46
344.00	20697.36
345.00	20865.10
346.00	21345.69
347.00	21974.51
348.00	22336.51
349.00	22202.32
350.00	21616.41
351.00	20641.96
352.00	19880.51
353.00	19862.57
354.00	20311.95
355.00	21044.54
356.00	21571.94
357.00	22071.25
358.00	22421.55
359.00	22619.72
360.00	22744.55
361.00	23181.45
362.00	23548.13
363.00	23972.55
364.00	24122.34
365.00	24258.87
366.00	24222.20
367.00	24131.70
368.00	23881.27
369.00	23502.88
370.00	23149.46
371.00	22940.37
372.00	22650.92
373.00	22222.61
374.00	21708.47
375.00	21321.50
376.00	20971.98
377.00	21003.19
378.00	21416.68
379.00	22132.89
380.00	22772.63
381.00	23513.80
382.00	23976.45
383.00	24294.76
384.00	24052.13
385.00	23729.13
386.00	23543.45
387.00	23872.68
388.00	24499.95
389.00	25163.88
390.00	25749.79
391.00	26031.44
392.00	26291.24
393.00	26513.59
394.00	26888.85
395.00	27199.37
396.00	27384.27
397.00	27762.65
398.00	27896.07
399.00	28051.32
400.00	27721.31
401.00	27751.73
402.00	27606.62
403.00	27912.45
404.00	28041.18
405.00	28258.07
406.00	28357.93
407.00	28257.29
408.00	28024.79
409.00	27929.61
410.00	28071.61
411.00	28355.59
412.00	27960.04
413.00	27236.81
414.00	26455.08
415.00	26004.13
416.00	25958.10
417.00	26037.68
418.00	26466.00
419.00	26768.71
420.00	27253.98
421.00	27715.84
422.00	28180.05
423.00	28591.20
424.00	28892.35
425.00	29006.26
426.00	28953.21
427.00	28591.20
428.00	28471.84
429.00	28360.27
430.00	28589.64
431.00	28590.42
432.00	28513.19
433.00	28300.98
434.00	28345.45
435.00	28582.62
436.00	28887.67
437.00	29145.91
438.00	29433.80
439.00	29908.15
440.00	30519.03
441.00	30859.96
442.00	30993.37
443.00	30814.71
444.00	30756.98
445.00	30520.59
446.00	30400.44
447.00	30334.90
448.00	30270.93
449.00	30093.05
450.00	29775.52
451.00	29300.39
452.00	28638.01
453.00	28018.55
454.00	27663.57
455.00	27771.24
456.00	28172.25
457.00	28721.49
458.00	29179.46
459.00	29371.38
460.00	29706.08
461.00	29877.72
462.00	29910.49
463.00	29663.17
464.00	29398.69
465.00	29263.72
466.00	29137.33
467.00	29479.83
468.00	29686.57
469.00	30275.61
470.00	30536.97
471.00	30904.43
472.00	30984.01
473.00	30980.11
474.00	31243.03
475.00	31346.01
476.00	31683.83
477.00	32003.71
478.00	32132.43
479.00	32119.17
480.00	31489.57
481.00	31105.72
482.00	30572.86
483.00	30459.73
484.00	30616.55
485.00	30914.58
486.00	31184.52
487.00	31254.73
488.00	31162.67
489.00	31062.03
490.00	30885.71
491.00	30973.09
492.00	31100.26
493.00	31094.02
494.00	31084.65
495.00	31179.06
496.00	31509.85
497.00	31913.98
498.00	32120.73
499.00	32348.54
500.00	32279.89
501.00	32435.92
502.00	32452.31
503.00	32591.96
504.00	32732.39
505.00	32829.13
506.00	32944.60
507.00	32978.93
508.00	32979.71
509.00	32828.35
510.00	32811.97
511.00	32736.29
512.00	32728.49
513.00	32442.17
514.00	32346.98
515.00	32238.54
516.00	32187.05
517.00	31931.15
518.00	31633.12
519.00	31283.60
520.00	31456.02
521.00	31605.03
522.00	31811.78
523.00	32020.09
524.00	32315.78
525.00	32737.85
526.00	32357.13
527.00	31862.49
528.00	31075.29
529.00	30764.00
530.00	30612.65
531.00	30792.87
532.00	30882.59
533.00	31118.98
534.00	31310.13
535.00	31835.19
536.00	31598.79
537.00	31567.59
538.00	31488.79
539.00	31995.12
540.00	32128.53
541.00	32039.59
542.00	31878.88
543.00	31931.15
544.00	31899.16
545.00	31887.46
546.00	31538.72
547.00	31221.19
548.00	30971.53
549.00	31009.76
550.00	31072.95
551.00	31118.98
552.00	31202.46
553.00	31445.10
554.00	31828.95
555.00	32265.07
556.00	32668.42
557.00	33262.13
558.00	33801.24
559.00	34236.58
560.00	34328.64
561.00	34167.92
562.00	33813.72
563.00	33472.78
564.00	33243.41
565.00	33245.75
566.00	33454.84
567.00	33426.75
568.00	33621.80
569.00	33464.20
570.00	33983.02
571.00	34355.94
572.00	34919.23
573.00	34932.50
574.00	34952.78
575.00	34933.28
576.00	35145.48
577.00	35167.33
578.00	35341.31
579.00	35037.04
580.00	34961.36
581.00	34635.25
582.00	34671.92
583.00	34644.61
584.00	34837.31
585.00	35382.66
586.00	35978.72
587.00	36419.52
588.00	36527.18
589.00	36771.38
590.00	37148.20
591.00	37690.43
592.00	38192.86
593.00	38398.05
594.00	38238.11
595.00	37863.63
596.00	37822.28
597.00	38146.05
598.00	38955.88
599.00	39730.59
600.00	40098.06
601.00	39987.27
602.00	39689.24
603.00	39761.02
604.00	40019.26
605.00	40554.46
606.00	40617.66
607.00	40826.74
608.00	40835.33
609.00	41256.62
610.00	41446.21
611.00	41720.83
612.00	42034.46
613.00	42515.05
614.00	42784.99
615.00	42865.35
616.00	42589.17
617.00	42433.91
618.00	42544.70
619.00	42738.18
620.00	42969.90
621.00	43115.01
622.00	43452.05
623.00	43828.09
624.00	43822.63
625.00	43477.79
626.00	43306.93
627.00	43514.46
628.00	43754.75
629.00	44148.74
630.00	44421.81
631.00	44494.36
632.00	43668.94
633.00	42813.08
634.00	41649.83
635.00	40050.47
636.00	38156.19
637.00	37160.69
638.00	37496.94
639.00	38578.27
640.00	39778.96
641.00	40902.42
642.00	41902.61
643.00	42790.45
644.00	43750.85
645.00	44559.90
646.00	45414.19
647.00	46021.17
648.00	46647.66
649.00	46930.08
650.00	46841.92
651.00	46456.51
652.00	45965.78
653.00	46116.36
654.00	46653.90
655.00	47673.59
656.00	48548.95
657.00	49514.03
658.00	49975.12
659.00	50408.12
660.00	50352.72
661.00	50365.21
662.00	50199.03
663.00	50181.09
664.00	50122.57
665.00	50032.07
666.00	50073.42
667.00	49969.66
668.00	49468.00
669.00	48745.56
670.00	48176.81
671.00	48285.25
672.00	48843.86
673.00	49809.72
674.00	50813.81
675.00	51508.17
676.00	51752.37
677.00	51596.33
678.00	51223.40
679.00	51006.51
680.00	51003.39
681.00	51367.74
682.00	51990.32
683.00	52617.58
684.00	53155.13
685.00	53510.11
686.00	53681.75
687.00	53782.39
688.00	53531.95
689.00	53266.69
690.00	52954.62
691.00	52850.86
692.00	52878.94
693.00	53061.51
694.00	53489.04
695.00	53819.84
696.00	54005.52
697.00	54021.90
698.00	54148.29
699.00	54267.66
700.00	54521.22
701.00	54637.47
702.00	54491.57
703.00	54119.43
704.00	53573.30
705.00	53129.38
706.00	52871.14
707.00	52989.73
708.00	53459.40
709.00	53957.15
710.00	54375.33
711.00	54748.25
712.00	54930.81
713.00	54908.97
714.00	54730.31
715.00	54467.39
716.00	54202.91
717.00	53796.43
718.00	53446.91
719.00	53148.89
720.00	53094.27
721.00	53070.87
722.00	53037.32
723.00	52859.44
724.00	52818.09
725.00	52821.21
726.00	52969.44
727.00	53270.59
728.00	53614.65
729.00	53968.85
730.00	54078.08
731.00	54152.97
732.00	54322.27
733.00	54532.92
734.00	54584.41
735.00	54287.17
736.00	53723.88
737.00	53372.02
738.00	53175.41
739.00	53388.40
740.00	53695.01
741.00	54208.37
742.00	54526.68
743.00	54705.34
744.00	54799.74
745.00	55156.28
746.00	55505.80
747.00	55868.59
748.00	55952.85
749.00	56125.27
750.00	56158.03
751.00	55970.79
752.00	55786.67
753.00	55386.44
754.00	55362.25
755.00	55056.42
756.00	55145.36
757.00	54952.66
758.00	54902.73
759.00	54564.13
760.00	54248.16
761.00	54110.85
762.00	54282.48
763.00	54626.54
764.00	55084.51
765.00	55427.01
766.00	55885.75
767.00	56150.23
768.00	56287.54
769.00	56190.80
770.00	55925.54
771.00	55650.92
772.00	55596.31
773.00	55638.43
774.00	55721.13
775.00	55622.05
776.00	55547.93
777.00	55655.60
778.00	55806.17
779.00	56113.56
780.00	56359.32
781.00	56675.29
782.00	56793.88
783.00	56728.34
784.00	56499.75
785.00	56136.19
786.00	55799.93
787.00	55444.95
788.00	55364.59
789.00	55454.31
790.00	55558.86
791.00	55686.03
792.00	55581.48
793.00	55428.57
794.00	55226.50
795.00	55052.52
796.00	55050.18
797.00	55036.92
798.00	55182.03
799.00	55256.15
800.00	55426.23
801.00	55403.60
802.00	55595.52
803.00	55657.94
804.00	55916.96
805.00	56059.73
806.00	56162.71
807.00	55863.13
808.00	55153.16
809.00	54081.20
810.00	52882.84
811.00	51481.64
812.00	50277.83
813.00	49725.46
814.00	50256.76
815.00	51534.70
816.00	52939.02
817.00	53796.43
818.00	53801.11
819.00	53251.87
820.00	52631.63
821.00	52358.56
822.00	52573.11
823.00	53067.75
824.00	53705.93
825.00	54220.85
826.00	54647.61
827.00	54949.54
828.00	55231.18
829.00	55580.70
830.00	55903.70
831.00	55973.13
832.00	55870.15
833.00	55538.57
834.00	55472.26
835.00	55491.76
836.00	55774.19
837.00	56055.83
838.00	56231.37
839.00	56269.60
840.00	56366.34
841.00	56458.40
842.00	56560.61
843.00	56287.54
844.00	55929.44
845.00	55591.62
846.00	55419.98
847.00	55298.28
848.00	55244.44
849.00	55384.10
850.00	55671.98
851.00	56051.15
852.00	56519.26
853.00	56892.18
854.00	57154.32
855.00	57222.20
856.00	57216.74
857.00	57143.40
858.00	56996.73
859.00	56847.71
860.00	56716.64
861.00	56587.91
862.00	56745.51
863.00	56798.56
864.00	56782.96
865.00	56168.96
866.00	55339.63
867.00	54305.11
868.00	53455.50
869.00	52813.41
870.00	52575.45
871.00	52788.44
872.00	53333.79
873.00	53971.19
874.00	54602.36
875.00	55143.02
876.00	55605.67
877.00	55778.87
878.00	55877.17
879.00	55988.74
880.00	56375.70
881.00	56792.32
882.00	57080.99
883.00	57134.04
884.00	56988.92
885.00	56701.04
886.00	56310.17
887.00	55986.39
888.00	55863.91
889.00	55986.39
890.00	56288.32
891.00	56564.51
892.00	56879.70
893.00	56972.54
894.00	57163.68
895.00	57162.90
896.00	57130.92
897.00	56890.62
898.00	56677.63
899.00	56521.60
900.00	56243.07
901.00	55714.89
902.00	55143.02
903.00	54552.43
904.00	54191.20
905.00	54112.41
906.00	54369.86
907.00	54887.90
908.00	55295.16
909.00	55728.16
910.00	55782.77
911.00	55704.75
912.00	55471.48
913.00	55332.60
914.00	55341.19
915.00	55469.92
916.00	55618.93
917.00	55801.49
918.00	55984.83
919.00	56146.33
920.00	56419.39
921.00	56674.51
922.00	56868.78
923.00	56769.69
924.00	56410.03
925.00	56019.16
926.00	55703.19
927.00	55364.59
928.00	54910.53
929.00	54560.23
930.00	54478.31
931.00	54790.38
932.00	55138.34
933.00	55475.38
934.00	55605.67
935.00	55585.38
936.00	55625.17
937.00	55710.21
938.00	55658.72
939.00	55510.49
940.00	55377.86
941.00	55152.38
942.00	54983.87
943.00	54696.76
944.00	54578.17
945.00	54224.75
946.00	54084.32
947.00	53833.10
948.00	53872.89
949.00	53676.29
950.00	53631.82
951.00	53432.87
952.00	53245.63
953.00	53275.27
954.00	53472.66
955.00	53820.62
956.00	54081.98
957.00	54251.28
958.00	54580.51
959.00	54739.67
960.00	54679.60
961.00	54363.62
962.00	54275.46
963.00	54204.47
964.00	54203.69
965.00	54018.78
966.00	54047.65
967.00	54218.51
968.00	54443.98
969.00	54617.96
970.00	54910.53
971.00	55146.92
972.00	55322.46
973.00	55111.81
974.00	54880.10
975.00	54774.78
976.00	54674.91
977.00	54639.81
978.00	54520.44
979.00	54497.03
980.00	54494.69
981.00	54611.72
982.00	54624.20
983.00	54573.49
984.00	54421.36
985.00	54304.33
986.00	54248.16
987.00	54078.08
988.00	54206.81
989.00	54071.84
990.00	54072.62
991.00	53717.64
992.00	53495.28
993.00	53277.61
994.00	53373.58
995.00	53535.85
996.00	53766.01
997.00	53938.43
998.00	54125.67
999.00	54172.48
1000.00	54155.32
1001.00	54280.92
1002.00	54325.39
1003.00	54287.95
1004.00	54266.10
1005.00	54319.93
1006.00	54343.34
1007.00	54186.52
1008.00	54041.41
1009.00	53848.71
1010.00	53704.37
1011.00	53531.17
1012.00	53503.87
1013.00	53372.80
1014.00	53387.62
1015.00	53482.80
1016.00	53702.03
1017.00	54032.05
1018.00	54167.80
1019.00	54291.07
1020.00	54115.53
1021.00	53958.71
1022.00	53584.22
1023.00	53190.23
1024.00	52903.91
1025.00	52981.93
1026.00	53215.98
1027.00	53476.56
1028.00	53662.24
1029.00	53749.62
1030.00	53728.56
1031.00	53821.40
1032.00	53908.78
1033.00	54036.73
1034.00	53961.05
1035.00	53870.55
1036.00	53930.62
1037.00	53887.71
1038.00	53912.68
1039.00	53738.70
1040.00	53609.97
1041.00	53419.61
1042.00	53327.55
1043.00	53215.98
1044.00	53168.39
1045.00	53010.01
1046.00	52802.49
1047.00	52515.38
1048.00	52336.72
1049.00	52228.27
1050.00	52297.71
1051.00	52257.92
1052.00	52573.89
1053.00	52699.50
1054.00	52791.56
1055.00	52580.92
1056.00	52416.30
1057.00	52067.56
1058.00	51630.66
1059.00	51066.59
1060.00	50877.01
1061.00	50759.98
1062.00	50952.68
1063.00	51164.89
1064.00	51222.62
1065.00	51121.20
1066.00	50874.66
1067.00	50969.85
1068.00	51182.84
1069.00	51495.69
1070.00	51778.11
1071.00	52215.01
1072.00	52594.96
1073.00	52655.81
1074.00	52388.21
1075.00	51971.60
1076.00	51612.71
1077.00	51344.33
1078.00	51237.45
1079.00	51203.12
1080.00	51161.77
1081.00	51279.58
1082.00	51419.23
1083.00	51690.73
1084.00	51777.33
1085.00	51933.37
1086.00	51927.13
1087.00	51885.78
1088.00	51515.97
1089.00	51331.07
1090.00	50987.01
1091.00	50983.11
1092.00	50862.18
1093.00	50862.18
1094.00	51010.42
1095.00	50971.41
1096.00	51046.30
1097.00	50983.11
1098.00	50929.28
1099.00	50599.26
1100.00	50153.78
1101.00	49803.48
1102.00	49620.92
1103.00	49550.70
1104.00	49482.05
1105.00	49585.03
1106.00	49650.56
1107.00	49887.74
1108.00	50050.02
1109.00	50337.90
1110.00	50536.07
1111.00	50575.08
1112.00	50619.55
1113.00	50575.08
1114.00	50500.18
1115.00	50241.16
1116.00	49888.52
1117.00	49514.03
1118.00	49072.45
1119.00	48745.56
1120.00	48666.76
1121.00	48609.81
1122.00	48751.80
1123.00	48849.32
1124.00	48999.90
1125.00	48857.12
1126.00	48786.91
1127.00	48782.23
1128.00	48637.11
1129.00	48259.51
1130.00	47934.95
1131.00	47499.61
1132.00	47239.03
1133.00	46685.11
1134.00	46738.16
1135.00	46527.51
1136.00	46811.49
1137.00	46948.81
1138.00	47366.20
1139.00	47746.93
1140.00	48029.35
1141.00	48261.85
1142.00	48446.75
1143.00	48488.10
1144.00	48540.37
1145.00	48439.73
1146.00	48392.14
1147.00	48229.86
1148.00	48072.26
1149.00	47983.32
1150.00	48076.16
1151.00	48126.88
1152.00	48166.66
1153.00	48038.72
1154.00	47707.92
1155.00	47410.67
1156.00	47020.58
1157.00	46860.65
1158.00	46577.44
1159.00	46476.80
1160.00	46330.12
1161.00	46195.93
1162.00	45993.87
1163.00	45748.11
1164.00	45726.27
1165.00	45850.31
1166.00	45934.57
1167.00	46136.64
1168.00	46299.70
1169.00	46387.08
1170.00	46401.90
1171.00	46219.34
1172.00	46149.12
1173.00	46071.10
1174.00	45925.21
1175.00	45823.01
1176.00	45501.57
1177.00	45131.77
1178.00	44811.12
1179.00	44419.47
1180.00	44372.66
1181.00	44392.16
1182.00	44602.81
1183.00	44729.98
1184.00	44977.29
1185.00	45155.18
1186.00	45383.77
1187.00	45581.93
1188.00	45666.19
1189.00	45784.00
1190.00	45595.98
1191.00	45622.50
1192.00	45464.13
1193.00	45447.74
1194.00	45492.21
1195.00	45730.95
1196.00	45786.34
1197.00	45769.96
1198.00	45659.95
1199.00	45547.61
1200.00	45495.33
1201.00	45504.70
1202.00	45662.29
1203.00	45841.73
1204.00	45926.77
1205.00	46058.62
1206.00	45996.21
1207.00	46077.35
1208.00	46044.58
1209.00	46025.07
1210.00	45914.29
1211.00	45879.18
1212.00	45988.41
1213.00	45948.62
1214.00	45737.97
1215.00	45581.93
1216.00	45492.21
1217.00	45668.53
1218.00	45517.96
1219.00	45523.42
1220.00	45219.15
1221.00	44971.83
1222.00	44792.39
1223.00	44605.93
1224.00	44374.22
1225.00	43866.32
1226.00	43772.70
1227.00	43619.00
1228.00	43569.07
1229.00	43413.82
1230.00	43604.18
1231.00	43977.89
1232.00	44137.04
1233.00	44257.19
1234.00	44186.97
1235.00	44176.83
1236.00	44087.11
1237.00	43933.42
1238.00	43686.10
1239.00	43419.28
1240.00	43138.41
1241.00	42870.03
1242.00	42217.80
1243.00	41250.38
1244.00	39922.52
1245.00	38875.52
1246.00	37860.51
1247.00	37496.16
1248.00	37202.82
1249.00	37386.94
1250.00	37573.40
1251.00	38155.41
1252.00	39002.69
1253.00	40009.90
1254.00	40780.71
1255.00	41291.73
1256.00	41709.13
1257.00	42003.25
1258.00	42065.67
1259.00	41787.14
1260.00	41561.67
1261.00	41370.53
1262.00	41512.52
1263.00	41403.30
1264.00	41461.03
1265.00	41148.96
1266.00	41047.54
1267.00	41120.87
1268.00	41333.08
1269.00	41533.59
1270.00	41370.53
1271.00	41170.02
1272.00	41281.59
1273.00	41290.17
1274.00	41493.02
1275.00	41384.57
1276.00	41379.11
1277.00	41163.78
1278.00	40941.43
1279.00	40753.41
1280.00	40211.96
1281.00	39991.95
1282.00	39808.61
1283.00	40178.42
1284.00	40081.67
1285.00	40255.65
1286.00	40323.53
1287.00	40650.42
1288.00	40719.08
1289.00	40973.42
1290.00	41111.51
1291.00	41318.26
1292.00	41153.64
1293.00	40866.53
1294.00	40764.33
1295.00	40666.81
1296.00	40786.96
1297.00	40711.28
1298.00	40725.32
1299.00	40589.57
1300.00	40322.75
1301.00	40136.29
1302.00	40074.65
1303.00	40066.07
1304.00	40096.50
1305.00	40018.48
1306.00	39915.50
1307.00	39792.23
1308.00	39853.08
1309.00	39925.64
1310.00	40060.61
1311.00	40098.06
1312.00	40317.29
1313.00	40364.88
1314.00	40292.32
1315.00	39998.20
1316.00	39941.24
1317.00	39762.58
1318.00	39722.79
1319.00	39455.19
1320.00	39394.34
1321.00	39437.25
1322.00	39439.59
1323.00	39354.55
1324.00	39107.23
1325.00	38935.59
1326.00	38888.00
1327.00	38825.59
1328.00	38704.66
1329.00	38635.22
1330.00	38641.46
1331.00	38845.09
1332.00	38937.93
1333.00	38994.11
1334.00	39079.92
1335.00	39180.57
1336.00	39381.07
1337.00	39532.43
1338.00	39603.42
1339.00	39572.22
1340.00	39560.51
1341.00	39522.29
1342.00	39516.82
1343.00	39484.06
1344.00	39551.93
1345.00	39500.44
1346.00	39291.35
1347.00	39193.83
1348.00	39021.41
1349.00	39028.43
1350.00	38828.71
1351.00	38722.60
1352.00	38471.39
1353.00	38479.97
1354.00	38515.86
1355.00	38580.61
1356.00	38492.45
1357.00	38448.76
1358.00	38469.05
1359.00	38454.22
1360.00	38456.56
1361.00	38403.51
1362.00	38414.43
1363.00	38283.36
1364.00	38102.36
1365.00	37833.20
1366.00	37783.27
1367.00	37595.24
1368.00	37689.65
1369.00	37537.51
1370.00	37493.82
1371.00	37229.34
1372.00	37191.89
1373.00	37207.50
1374.00	37258.21
1375.00	37250.41
1376.00	37330.76
1377.00	37185.65
1378.00	37053.80
1379.00	36871.24
1380.00	36730.03
1381.00	36584.13
1382.00	36490.51
1383.00	36397.67
1384.00	36429.66
1385.00	36645.77
1386.00	36759.67
1387.00	36803.36
1388.00	36655.13
1389.00	36710.52
1390.00	36620.80
1391.00	36590.38
1392.00	36290.01
1393.00	36103.54
1394.00	35775.87
1395.00	35741.54
1396.00	35820.34
1397.00	35698.63
1398.00	35862.47
1399.00	35772.75
1400.00	36082.48
1401.00	35778.21
1402.00	35549.62
1403.00	35088.53
1404.00	34772.56
1405.00	34723.41
1406.00	34725.75
1407.00	35025.34
1408.00	34988.67
1409.00	35073.71
1410.00	35054.20
1411.00	35080.73
1412.00	35031.58
1413.00	35090.87
1414.00	35256.27
1415.00	35164.99
1416.00	34895.83
1417.00	34346.58
1418.00	33891.74
1419.00	33500.87
1420.00	33437.67
1421.00	33330.01
1422.00	33325.33
1423.00	33177.87
1424.00	33299.58
1425.00	33359.66
1426.00	33525.05
1427.00	33613.21
1428.00	33767.69
1429.00	33938.55
1430.00	34216.29
1431.00	34253.74
1432.00	34245.16
1433.00	34277.93
1434.00	34334.10
1435.00	34455.81
1436.00	34243.60
1437.00	34075.08
1438.00	33857.41
1439.00	33616.33
1440.00	33489.95
1441.00	33452.50
1442.00	33644.42
1443.00	33847.27
1444.00	33855.07
1445.00	33861.31
1446.00	33862.87
1447.00	33867.55
1448.00	33947.91
1449.00	33936.99
1450.00	34074.30
1451.00	33964.29
1452.00	33756.77
1453.00	33445.48
1454.00	33187.24
1455.00	32954.74
1456.00	32653.59
1457.00	32509.26
1458.00	32598.98
1459.00	32768.28
1460.00	32915.73
1461.00	32876.73
1462.00	32623.17
1463.00	32283.79
1464.00	32137.12
1465.00	32088.74
1466.00	32020.87
1467.00	31819.58
1468.00	31690.85
1469.00	31754.83
1470.00	31748.59
1471.00	31775.89
1472.00	31559.00
1473.00	31438.08
1474.00	31254.73
1475.00	31193.10
1476.00	31109.62
1477.00	31101.82
1478.00	30957.49
1479.00	30842.80
1480.00	30593.14
1481.00	30462.07
1482.00	30281.07
1483.00	30259.23
1484.00	30308.38
1485.00	30370.01
1486.00	30459.73
1487.00	30586.90
1488.00	30743.72
1489.00	30808.47
1490.00	30654.78
1491.00	30534.63
1492.00	30292.77
1493.00	30043.12
1494.00	29610.90
1495.00	29110.80
1496.00	28524.89
1497.00	28112.17
1498.00	27864.86
1499.00	27971.74
1500.00	28339.21
1501.00	28765.18
1502.00	29070.23
1503.00	29150.59
1504.00	29038.25
1505.00	29050.73
1506.00	28909.52
1507.00	28859.59
1508.00	28673.90
1509.00	28375.09
1510.00	28223.74
1511.00	27998.27
1512.00	28034.94
1513.00	28027.14
1514.00	28255.73
1515.00	28616.17
1516.00	28755.82
1517.00	28832.28
1518.00	28741.78
1519.00	28645.04
1520.00	28471.06
1521.00	28051.32
1522.00	27779.82
1523.00	27506.76
1524.00	27569.17
1525.00	27822.73
1526.00	28158.99
1527.00	28489.00
1528.00	28744.12
1529.00	28807.31
1530.00	28777.67
1531.00	28690.29
1532.00	28627.09
1533.00	28490.56
1534.00	28235.44
1535.00	28109.05
1536.00	28110.61
1537.00	28116.08
1538.00	28112.17
1539.00	28140.26
1540.00	28173.03
1541.00	28185.51
1542.00	28217.50
1543.00	28321.26
1544.00	28410.20
1545.00	28315.02
1546.00	28348.57
1547.00	28342.33
1548.00	28326.72
1549.00	28187.07
1550.00	27992.03
1551.00	27822.73
1552.00	27613.64
1553.00	27564.49
1554.00	27491.15
1555.00	27647.19
1556.00	27788.40
1557.00	27999.05
1558.00	28048.20
1559.00	28166.01
1560.00	28147.28
1561.00	28127.00
1562.00	28098.91
1563.00	28090.33
1564.00	28116.08
1565.00	28058.34
1566.00	27979.54
1567.00	27891.38
1568.00	27718.96
1569.00	27780.60
1570.00	27842.23
1571.00	27852.38
1572.00	27745.49
1573.00	27512.22
1574.00	27442.00
1575.00	27198.59
1576.00	27033.97
1577.00	26788.21
1578.00	26669.62
1579.00	26729.70
1580.00	26732.82
1581.00	26793.67
1582.00	26723.46
1583.00	26715.65
1584.00	26692.25
1585.00	26593.17
1586.00	26455.86
1587.00	26245.99
1588.00	26352.87
1589.00	26405.92
1590.00	26428.55
1591.00	26205.42
1592.00	26093.85
1593.00	26040.80
1594.00	26037.68
1595.00	26089.17
1596.00	26309.18
1597.00	26421.53
1598.00	26476.92
1599.00	26316.20
1600.00	26105.56
1601.00	25918.31
1602.00	25900.37
1603.00	25923.77
1604.00	25929.23
1605.00	26016.61
1606.00	26068.11
1607.00	26070.45
1608.00	25960.44
1609.00	25994.77
1610.00	25964.34
1611.00	25805.19
1612.00	25573.47
1613.00	25440.84
1614.00	25365.95
1615.00	25404.95
1616.00	25188.07
1617.00	25231.76
1618.00	25138.91
1619.00	25131.89
1620.00	24933.73
1621.00	24767.55
1622.00	24722.30
1623.00	24705.91
1624.00	24662.22
1625.00	24697.33
1626.00	24609.17
1627.00	24536.62
1628.00	24382.14
1629.00	24264.33
1630.00	24205.82
1631.00	24150.43
1632.00	24098.16
1633.00	23983.47
1634.00	24002.19
1635.00	24099.72
1636.00	24194.12
1637.00	24191.00
1638.00	23932.76
1639.00	23740.83
1640.00	23552.03
1641.00	23392.09
1642.00	23167.40
1643.00	22973.14
1644.00	22953.63
1645.00	23162.72
1646.00	23407.70
1647.00	23602.74
1648.00	23878.15
1649.00	24015.46
1650.00	24215.18
1651.00	24120.78
1652.00	24158.23
1653.00	24213.62
1654.00	24044.32
1655.00	23946.02
1656.00	23602.74
1657.00	23425.64
1658.00	23008.25
1659.00	22942.71
1660.00	23058.96
1661.00	23342.16
1662.00	23495.08
1663.00	23602.74
1664.00	23572.32
1665.00	23645.65
1666.00	23591.04
1667.00	23708.85
1668.00	23687.00
1669.00	23653.45
1670.00	23520.82
1671.00	23456.85
1672.00	23473.23
1673.00	23362.45
1674.00	23221.23
1675.00	23165.84
1676.00	23199.39
1677.00	23087.82
1678.00	22773.41
1679.00	22446.52
1680.00	22340.41
1681.00	22337.29
1682.00	22281.90
1683.00	22093.10
1684.00	21750.60
1685.00	21356.61
1686.00	20666.93
1687.00	19925.76
1688.00	19062.88
1689.00	18361.50
1690.00	17999.50
1691.00	18089.22
1692.00	18537.04
1693.00	19123.74
1694.00	19677.66
1695.00	20269.82
1696.00	20663.03
1697.00	21089.79
1698.00	21444.77
1699.00	21680.38
1700.00	21940.96
1701.00	22014.30
1702.00	22157.85
1703.00	22208.56
1704.00	22209.34
1705.00	22171.89
1706.00	22176.58
1707.00	22160.97
1708.00	22171.11
1709.00	22107.92
1710.00	21955.79
1711.00	21814.57
1712.00	21532.93
1713.00	21570.38
1714.00	21660.88
1715.00	21752.94
1716.00	21838.76
1717.00	21766.20
1718.00	21768.54
1719.00	21754.50
1720.00	21878.55
1721.00	21873.09
1722.00	21825.50
1723.00	21755.28
1724.00	21813.01
1725.00	21901.95
1726.00	21881.67
1727.00	21830.96
1728.00	21639.03
1729.00	21561.02
1730.00	21555.55
1731.00	21692.87
1732.00	21734.21
1733.00	21667.90
1734.00	21588.32
1735.00	21538.39
1736.00	21415.90
1737.00	21276.25
1738.00	21063.26
1739.00	21030.49
1740.00	20790.98
1741.00	20886.16
1742.00	20854.17
1743.00	20961.84
1744.00	20868.22
1745.00	20803.46
1746.00	20762.89
1747.00	20636.50
1748.00	20602.18
1749.00	20542.10
1750.00	20653.67
1751.00	20749.63
1752.00	20826.09
1753.00	20810.48
1754.00	20754.31
1755.00	20645.09
1756.00	20531.96
1757.00	20397.77
1758.00	20226.91
1759.00	20134.85
1760.00	20036.55
1761.00	19977.25
1762.00	19881.29
1763.00	19800.93
1764.00	19875.05
1765.00	19896.89
1766.00	19918.74
1767.00	19829.80
1768.00	19724.47
1769.00	19591.06
1770.00	19626.95
1771.00	19609.79
1772.00	19719.01
1773.00	19772.85
1774.00	19852.42
1775.00	19872.71
1776.00	19731.50
1777.00	19605.89
1778.00	19524.75
1779.00	19551.27
1780.00	19489.64
1781.00	19395.24
1782.00	19251.69
1783.00	19154.94
1784.00	19099.55
1785.00	19087.07
1786.00	19094.09
1787.00	19110.47
1788.00	19032.46
1789.00	18985.65
1790.00	18776.56
1791.00	18723.51
1792.00	18587.75
1793.00	18554.99
1794.00	18515.98
1795.00	18520.66
1796.00	18497.25
1797.00	18356.82
1798.00	18219.51
1799.00	18104.82
1800.00	18087.66
1801.00	18020.56
1802.00	17997.94
1803.00	17965.95
1804.00	18008.08
1805.00	17992.48
1806.00	17962.05
1807.00	18025.25
1808.00	18146.17
1809.00	18150.85
1810.00	18061.13
1811.00	17879.35
1812.00	17801.33
1813.00	17697.57
1814.00	17649.20
1815.00	17518.91
1816.00	17401.88
1817.00	17312.94
1818.00	17222.44
1819.00	17316.06
1820.00	17163.93
1821.00	17247.41
1822.00	17127.26
1823.00	17223.22
1824.00	17162.37
1825.00	17195.14
1826.00	17206.84
1827.00	17170.17
1828.00	17188.11
1829.00	17131.94
1830.00	16984.49
1831.00	16823.77
1832.00	16745.75
1833.00	16805.83
1834.00	16791.78
1835.00	16765.26
1836.00	16556.17
1837.00	16393.11
1838.00	16271.40
1839.00	16321.34
1840.00	16316.65
1841.00	16296.37
1842.00	16304.95
1843.00	16312.75
1844.00	16212.11
1845.00	16060.76
1846.00	15893.02
1847.00	15772.09
1848.00	15783.79
1849.00	15765.85
1850.00	15836.06
1851.00	15749.46
1852.00	15736.98
1853.00	15595.77
1854.00	15516.97
1855.00	15424.91
1856.00	15435.05
1857.00	15531.01
1858.00	15435.05
1859.00	15385.90
1860.00	15304.76
1861.00	15306.32
1862.00	15215.04
1863.00	15140.93
1864.00	15139.37
1865.00	15170.57
1866.00	15060.57
1867.00	14999.71
1868.00	14874.88
1869.00	14867.86
1870.00	14866.30
1871.00	14888.15
1872.00	14840.56
1873.00	14778.92
1874.00	14830.41
1875.00	14750.06
1876.00	14628.35
1877.00	14420.82
1878.00	14342.80
1879.00	14271.81
1880.00	14214.07
1881.00	14157.12
1882.00	14155.56
1883.00	14043.21
1884.00	13956.61
1885.00	13794.34
1886.00	13754.55
1887.00	13550.92
1888.00	13455.74
1889.00	13327.79
1890.00	13387.08
1891.00	13440.92
1892.00	13559.50
1893.00	13586.81
1894.00	13520.49
1895.00	13354.32
1896.00	13275.52
1897.00	13209.98
1898.00	13151.47
1899.00	13034.44
1900.00	12968.91
1901.00	12957.21
1902.00	12836.28
1903.00	12648.26
1904.00	12178.59
1905.00	11641.04
1906.00	10805.47
1907.00	9970.68
1908.00	9100.78
1909.00	8478.20
1910.00	8038.96
1911.00	7862.64
1912.00	7924.27
1913.00	8241.81
1914.00	8558.56
1915.00	9032.91
1916.00	9426.90
1917.00	9880.18
1918.00	10044.02
1919.00	10096.29
1920.00	10040.12
1921.00	9841.95
1922.00	9728.83
1923.00	9536.12
1924.00	9443.28
1925.00	9354.34
1926.00	9371.50
1927.00	9398.03
1928.00	9373.85
1929.00	9417.54
1930.00	9554.07
1931.00	9760.03
1932.00	9847.41
1933.00	9912.95
1934.00	9831.03
1935.00	9905.15
1936.00	9957.42
1937.00	10102.53
1938.00	10162.61
1939.00	10227.36
1940.00	10221.90
1941.00	10207.08
1942.00	10115.80
1943.00	10074.45
1944.00	10062.74
1945.00	10084.59
1946.00	10068.98
1947.00	10054.16
1948.00	10040.12
1949.00	10103.31
1950.00	10058.06
1951.00	10025.29
1952.00	9958.20
1953.00	9895.00
1954.00	9812.31
1955.00	9778.76
1956.00	9710.88
1957.00	9712.44
1958.00	9526.76
1959.00	9472.15
1960.00	9287.25
1961.00	9276.32
1962.00	9265.40
1963.00	9295.05
1964.00	9259.94
1965.00	9199.09
1966.00	9220.93
1967.00	9200.65
1968.00	9227.17
1969.00	9174.90
1970.00	9136.67
1971.00	9069.58
1972.00	8979.86
1973.00	9053.97
1974.00	9044.61
1975.00	9071.14
1976.00	9035.25
1977.00	9041.49
1978.00	9078.94
1979.00	9114.83
1980.00	9183.48
1981.00	9237.31
1982.00	9231.07
1983.00	9231.85
1984.00	9199.87
1985.00	9192.06
1986.00	9088.30
1987.00	8973.61
1988.00	8800.41
1989.00	8680.27
1990.00	8607.71
1991.00	8551.54
1992.00	8485.22
1993.00	8425.93
1994.00	8352.59
1995.00	8342.45
1996.00	8241.03
1997.00	8188.75
1998.00	8027.26
1999.00	7972.64
2000.00	7944.56
2001.00	7981.23
2002.00	8026.48
2003.00	8017.12
2004.00	8013.99
2005.00	7948.46
2006.00	7928.17
2007.00	7884.48
2008.00	7802.57
2009.00	7729.23
2010.00	7654.33
2011.00	7687.88
2012.00	7680.86
2013.00	7679.30
2014.00	7601.28
2015.00	7510.78
2016.00	7375.03
2017.00	7341.48
2018.00	7299.35
2019.00	7327.44
2020.00	7277.51
2021.00	7304.81
2022.00	7275.95
2023.00	7255.66
2024.00	7203.39
2025.00	7143.32
2026.00	7089.48
2027.00	7033.31
2028.00	7060.62
2029.00	7099.62
2030.00	7169.84
2031.00	7189.35
2032.00	7209.63
2033.00	7156.58
2034.00	7067.64
2035.00	6974.80
2036.00	6980.26
2037.00	7024.73
2038.00	7039.55
2039.00	6998.20
2040.00	6955.29
2041.00	6952.95
2042.00	6947.49
2043.00	6912.38
2044.00	6803.94
2045.00	6730.60
2046.00	6698.61
2047.00	6705.63
>>>>>End Processed Spectral Data<<<<<
