SpectraSuite Data File
++++++++++++++++++++++++++++++++++++
Date: Thu Nov 16 13:32:55 EST 2017
User: cheriyan
Dark Spectrum Present: No
Reference Spectrum Present: No
Number of Sampled Component Spectra: 1
Spectrometers: USB2+H05261
Integration Time (usec): 90000 (USB2+H05261)
Spectra Averaged: 1 (USB2+H05261)
Boxcar Smoothing: 1 (USB2+H05261)
Correct for Electrical Dark: No (USB2+H05261)
Strobe/Lamp Enabled: No (USB2+H05261)
Correct for Detector Non-linearity: No (USB2+H05261)
Correct for Stray Light: No (USB2+H05261)
Number of Pixels in Processed Spectrum: 2048
>>>>>Begin Processed Spectral Data<<<<<
0.00	353.42
1.00	353.42
2.00	330.80
3.00	310.51
4.00	291.01
5.00	275.40
6.00	265.26
7.00	268.38
8.00	246.54
9.00	259.02
10.00	258.24
11.00	291.01
12.00	275.40
13.00	245.76
14.00	233.27
15.00	251.22
16.00	249.66
17.00	253.56
18.00	231.71
19.00	256.68
20.00	265.26
21.00	287.11
22.00	312.07
23.00	751.31
24.00	2426.36
25.00	4183.32
26.00	5589.98
27.00	5649.27
28.00	5497.92
29.00	5285.71
30.00	5075.84
31.00	5035.27
32.00	5028.25
33.00	5147.62
34.00	5156.98
35.00	4999.38
36.00	4787.96
37.00	4562.48
38.00	4556.24
39.00	4622.56
40.00	4773.13
41.00	4778.59
42.00	4706.82
43.00	4659.23
44.00	4748.95
45.00	5017.33
46.00	5324.72
47.00	5614.16
48.00	5767.08
49.00	5746.02
50.00	5673.46
51.00	5584.52
52.00	5663.32
53.00	5776.44
54.00	5971.49
55.00	6193.06
56.00	6392.00
57.00	6663.51
58.00	6846.07
59.00	7144.88
60.00	7236.94
61.00	7304.81
62.00	7105.09
63.00	6927.99
64.00	6653.36
65.00	6415.41
66.00	6161.85
67.00	5951.98
68.00	5892.69
69.00	5900.49
70.00	6086.95
71.00	6311.64
72.00	6578.47
73.00	6768.05
74.00	6854.65
75.00	6828.90
76.00	6644.00
77.00	6389.66
78.00	6065.89
79.00	5756.16
80.00	5485.44
81.00	5231.10
82.00	5039.95
83.00	4839.45
84.00	4698.24
85.00	4564.04
86.00	4492.27
87.00	4404.89
88.00	4432.19
89.00	4491.49
90.00	4824.62
91.00	5167.12
92.00	5670.34
93.00	6005.03
94.00	6321.01
95.00	6491.87
96.00	6519.95
97.00	6461.44
98.00	6264.05
99.00	6161.07
100.00	6090.85
101.00	6132.20
102.00	6268.73
103.00	6412.29
104.00	6530.09
105.00	6487.18
106.00	6399.80
107.00	6315.55
108.00	6316.33
109.00	6377.18
110.00	6420.09
111.00	6461.44
112.00	6446.62
113.00	6464.56
114.00	6486.40
115.00	6673.65
116.00	6959.19
117.00	7353.18
118.00	7737.81
119.00	8102.93
120.00	8348.69
121.00	8402.52
122.00	8347.13
123.00	8332.31
124.00	8390.04
125.00	8584.30
126.00	8780.13
127.00	9137.45
128.00	9275.54
129.00	9398.03
130.00	9179.58
131.00	8956.45
132.00	8571.82
133.00	8236.35
134.00	7682.42
135.00	7008.34
136.00	6211.00
137.00	5471.39
138.00	4855.05
139.00	4585.11
140.00	4800.44
141.00	5380.11
142.00	6146.25
143.00	6926.43
144.00	7655.11
145.00	8327.63
146.00	8879.99
147.00	9350.44
148.00	9611.80
149.00	9844.29
150.00	9926.21
151.00	9794.36
152.00	9282.56
153.00	8512.53
154.00	7539.65
155.00	6670.53
156.00	5969.15
157.00	5789.71
158.00	6048.72
159.00	6831.24
160.00	7886.83
161.00	9069.58
162.00	10061.96
163.00	10884.27
164.00	11541.18
165.00	12066.24
166.00	12450.87
167.00	12762.16
168.00	13105.44
169.00	13353.54
170.00	13565.74
171.00	13626.60
172.00	13685.11
173.00	13755.33
174.00	13796.68
175.00	13976.90
176.00	14064.28
177.00	14228.90
178.00	14441.89
179.00	14602.60
180.00	14847.58
181.00	14966.95
182.00	15069.93
183.00	15184.62
184.00	15236.11
185.00	15325.83
186.00	15225.97
187.00	15245.47
188.00	15041.06
189.00	14817.15
190.00	14548.77
191.00	14739.13
192.00	15090.21
193.00	15485.76
194.00	15451.44
195.00	15294.62
196.00	14970.85
197.00	14814.81
198.00	14862.40
199.00	14938.86
200.00	15052.77
201.00	15083.19
202.00	15089.43
203.00	14965.39
204.00	14861.62
205.00	14726.65
206.00	14636.93
207.00	14666.58
208.00	14824.95
209.00	15083.19
210.00	15279.02
211.00	15239.23
212.00	15190.08
213.00	15234.55
214.00	15629.32
215.00	15907.84
216.00	16193.39
217.00	16490.63
218.00	16851.86
219.00	17085.91
220.00	17124.92
221.00	17110.10
222.00	16737.95
223.00	16083.38
224.00	15464.70
225.00	15063.69
226.00	15013.76
227.00	15163.55
228.00	15474.84
229.00	15928.91
230.00	16534.32
231.00	17104.64
232.00	17689.77
233.00	18029.15
234.00	18135.25
235.00	18221.07
236.00	18278.02
237.00	18391.93
238.00	18303.77
239.00	18196.88
240.00	18075.18
241.00	17922.26
242.00	17814.60
243.00	17963.61
244.00	18283.48
245.00	18494.91
246.00	18664.99
247.00	18658.75
248.00	18540.16
249.00	18494.13
250.00	18643.15
251.00	18862.38
252.00	18953.66
253.00	18915.43
254.00	19027.78
255.00	19194.73
256.00	19499.00
257.00	19983.49
258.00	20272.16
259.00	20324.43
260.00	20028.74
261.00	19769.73
262.00	19412.40
263.00	19153.38
264.00	18931.03
265.00	19126.08
266.00	19236.08
267.00	19473.26
268.00	19443.61
269.00	19418.64
270.00	19369.49
271.00	19454.53
272.00	19764.26
273.00	20083.36
274.00	20134.07
275.00	19951.51
276.00	19586.38
277.00	19310.20
278.00	19202.54
279.00	19418.64
280.00	20007.68
281.00	20599.84
282.00	21157.66
283.00	21280.93
284.00	21435.41
285.00	21281.71
286.00	21460.37
287.00	21224.76
288.00	21004.75
289.00	20376.70
290.00	19807.95
291.00	19251.69
292.00	19097.99
293.00	19364.03
294.00	19923.42
295.00	20250.32
296.00	20443.80
297.00	20327.55
298.00	20379.04
299.00	20308.83
300.00	20368.90
301.00	20086.48
302.00	20076.34
303.00	20091.16
304.00	20134.85
305.00	20116.12
306.00	19882.07
307.00	19822.78
308.00	19557.52
309.00	19580.92
310.00	19798.59
311.00	20187.12
312.00	20252.66
313.00	19990.52
314.00	19314.88
315.00	18716.48
316.00	18427.04
317.00	18591.66
318.00	19016.85
319.00	19352.33
320.00	19779.09
321.00	19846.18
322.00	19763.48
323.00	19297.72
324.00	19108.91
325.00	18860.04
326.00	18830.39
327.00	18590.10
328.00	18200.79
329.00	17482.24
330.00	16677.10
331.00	15733.08
332.00	14955.24
333.00	14377.13
334.00	14287.41
335.00	14528.49
336.00	15186.18
337.00	16402.47
338.00	18148.51
339.00	20021.72
340.00	21470.51
341.00	22041.60
342.00	21691.30
343.00	21008.65
344.00	20539.76
345.00	20645.87
346.00	21099.15
347.00	21713.93
348.00	22141.47
349.00	22019.76
350.00	21290.29
351.00	20215.99
352.00	19474.04
353.00	19409.28
354.00	20047.47
355.00	20766.01
356.00	21359.73
357.00	21759.18
358.00	22022.88
359.00	22214.80
360.00	22358.36
361.00	22719.58
362.00	23047.26
363.00	23466.99
364.00	23811.05
365.00	23903.11
366.00	23832.11
367.00	23553.59
368.00	23427.98
369.00	23064.42
370.00	22903.70
371.00	22547.94
372.00	22279.56
373.00	21827.84
374.00	21292.63
375.00	20880.70
376.00	20644.31
377.00	20819.07
378.00	21202.91
379.00	21765.42
380.00	22356.80
381.00	23100.31
382.00	23724.45
383.00	24064.61
384.00	23992.83
385.00	23687.78
386.00	23413.16
387.00	23454.51
388.00	23803.25
389.00	24525.69
390.00	25116.29
391.00	25517.30
392.00	25759.16
393.00	26001.01
394.00	26439.47
395.00	26712.53
396.00	27077.66
397.00	27248.52
398.00	27464.63
399.00	27555.13
400.00	27309.37
401.00	27294.55
402.00	27176.74
403.00	27484.13
404.00	27570.73
405.00	27818.05
406.00	27974.86
407.00	27814.93
408.00	27454.48
409.00	27367.10
410.00	27589.45
411.00	27835.99
412.00	27406.89
413.00	26774.17
414.00	26036.12
415.00	25480.63
416.00	25333.18
417.00	25515.74
418.00	26123.50
419.00	26655.58
420.00	27039.43
421.00	27415.47
422.00	27838.33
423.00	28194.09
424.00	28365.73
425.00	28452.33
426.00	28350.13
427.00	28212.82
428.00	27964.72
429.00	27887.48
430.00	27904.65
431.00	28095.01
432.00	28039.62
433.00	28080.19
434.00	27987.35
435.00	28274.45
436.00	28522.55
437.00	28847.88
438.00	29080.38
439.00	29478.27
440.00	29940.13
441.00	30405.90
442.00	30497.18
443.00	30464.41
444.00	30414.48
445.00	30337.24
446.00	30092.27
447.00	29933.11
448.00	29740.41
449.00	29458.76
450.00	29151.37
451.00	28776.89
452.00	28204.24
453.00	27677.62
454.00	27240.72
455.00	27399.87
456.00	27589.45
457.00	28054.44
458.00	28586.52
459.00	28883.77
460.00	29245.77
461.00	29279.32
462.00	29307.41
463.00	29071.01
464.00	28897.81
465.00	28840.08
466.00	28881.43
467.00	29125.63
468.00	29344.86
469.00	29752.89
470.00	30113.33
471.00	30521.37
472.00	30659.46
473.00	30718.75
474.00	30775.70
475.00	30757.76
476.00	30964.51
477.00	31218.85
478.00	31579.29
479.00	31637.02
480.00	31282.04
481.00	30990.25
482.00	30465.19
483.00	30179.65
484.00	30091.49
485.00	30207.73
486.00	30496.40
487.00	30646.19
488.00	30707.05
489.00	30710.95
490.00	30461.29
491.00	30345.83
492.00	30320.08
493.00	30418.38
494.00	30653.22
495.00	30738.26
496.00	31177.50
497.00	31573.83
498.00	31921.79
499.00	31953.77
500.00	31796.18
501.00	31819.58
502.00	31902.28
503.00	32021.65
504.00	32151.94
505.00	32037.25
506.00	32187.83
507.00	32404.72
508.00	32594.30
509.00	32667.64
510.00	32522.52
511.00	32352.45
512.00	32130.87
513.00	32156.62
514.00	31955.33
515.00	31935.83
516.00	31646.38
517.00	31493.47
518.00	31152.53
519.00	30792.09
520.00	30953.58
521.00	31068.27
522.00	31324.17
523.00	31676.03
524.00	32114.49
525.00	32375.85
526.00	31983.42
527.00	31623.76
528.00	30934.08
529.00	30471.43
530.00	30198.37
531.00	30341.92
532.00	30779.60
533.00	30942.66
534.00	31104.16
535.00	31282.82
536.00	31062.81
537.00	30954.36
538.00	30954.36
539.00	31205.58
540.00	31406.87
541.00	31407.65
542.00	31446.66
543.00	31660.43
544.00	31598.79
545.00	31590.21
546.00	31182.18
547.00	30945.00
548.00	30654.78
549.00	30731.23
550.00	30693.79
551.00	30838.12
552.00	30989.47
553.00	31189.20
554.00	31384.24
555.00	31721.28
556.00	32264.28
557.00	32911.83
558.00	33303.48
559.00	33689.67
560.00	33827.76
561.00	33869.11
562.00	33275.40
563.00	32814.31
564.00	32344.64
565.00	32712.89
566.00	32988.29
567.00	33184.90
568.00	33322.21
569.00	33264.47
570.00	33644.42
571.00	33977.56
572.00	34411.34
573.00	34501.84
574.00	34291.19
575.00	34326.30
576.00	34489.35
577.00	34675.82
578.00	34555.67
579.00	34325.52
580.00	34148.42
581.00	34147.64
582.00	34197.57
583.00	34073.52
584.00	34256.86
585.00	34575.17
586.00	35307.76
587.00	35663.52
588.00	35977.93
589.00	36364.90
590.00	36790.88
591.00	37208.28
592.00	37491.48
593.00	37695.89
594.00	37565.60
595.00	37349.49
596.00	37340.13
597.00	37602.27
598.00	38098.46
599.00	38553.30
600.00	39249.22
601.00	39317.10
602.00	39416.96
603.00	39254.68
604.00	39380.29
605.00	39801.59
606.00	39842.16
607.00	40091.04
608.00	40087.14
609.00	40673.83
610.00	41035.05
611.00	41352.58
612.00	41702.89
613.00	42031.34
614.00	42213.12
615.00	42001.69
616.00	41876.08
617.00	42046.16
618.00	42350.43
619.00	42407.39
620.00	42547.82
621.00	42590.73
622.00	42995.64
623.00	43236.72
624.00	43212.53
625.00	43010.46
626.00	42885.64
627.00	43018.27
628.00	43177.42
629.00	43462.97
630.00	43892.07
631.00	43835.11
632.00	42930.11
633.00	42019.64
634.00	40836.11
635.00	39186.03
636.00	37417.36
637.00	36701.16
638.00	37271.47
639.00	38323.15
640.00	39435.69
641.00	40524.82
642.00	41351.02
643.00	42231.85
644.00	43210.19
645.00	44069.95
646.00	44890.69
647.00	45493.77
648.00	46145.22
649.00	46315.30
650.00	46211.54
651.00	45957.98
652.00	45710.66
653.00	45740.31
654.00	46214.66
655.00	47093.14
656.00	48079.28
657.00	48857.12
658.00	49276.08
659.00	49609.99
660.00	49744.97
661.00	49875.26
662.00	49799.58
663.00	49602.97
664.00	49450.06
665.00	49262.04
666.00	49426.65
667.00	49234.73
668.00	48871.17
669.00	48150.28
670.00	47747.71
671.00	47739.91
672.00	48322.70
673.00	49290.90
674.00	50192.79
675.00	50939.42
676.00	51036.94
677.00	51058.79
678.00	50627.35
679.00	50529.83
680.00	50511.10
681.00	50849.70
682.00	51420.01
683.00	52034.01
684.00	52698.72
685.00	53084.13
686.00	53306.48
687.00	53272.15
688.00	53069.31
689.00	52717.45
690.00	52402.25
691.00	52267.28
692.00	52342.96
693.00	52648.79
694.00	53102.07
695.00	53509.33
696.00	53609.97
697.00	53642.74
698.00	53785.51
699.00	53898.64
700.00	54043.75
701.00	54061.69
702.00	54131.13
703.00	53783.95
704.00	53242.51
705.00	52571.55
706.00	52341.40
707.00	52458.43
708.00	53031.86
709.00	53553.80
710.00	54043.75
711.00	54323.05
712.00	54496.25
713.00	54512.64
714.00	54344.12
715.00	53958.71
716.00	53567.06
717.00	53222.22
718.00	52991.29
719.00	52940.58
720.00	52726.81
721.00	52704.96
722.00	52562.97
723.00	52687.80
724.00	52594.18
725.00	52439.70
726.00	52500.56
727.00	52754.11
728.00	53055.26
729.00	53267.47
730.00	53521.03
731.00	53819.84
732.00	54058.57
733.00	54196.66
734.00	54124.89
735.00	53952.47
736.00	53467.98
737.00	52988.95
738.00	52604.32
739.00	52697.94
740.00	53109.10
741.00	53611.53
742.00	54007.86
743.00	54212.27
744.00	54345.68
745.00	54653.85
746.00	55017.41
747.00	55397.36
748.00	55580.70
749.00	55803.83
750.00	55821.00
751.00	55628.29
752.00	55366.15
753.00	55102.45
754.00	54979.96
755.00	54838.75
756.00	54816.91
757.00	54703.78
758.00	54561.01
759.00	54217.73
760.00	53885.37
761.00	53846.36
762.00	53962.61
763.00	54301.99
764.00	54567.25
765.00	54947.20
766.00	55485.52
767.00	55770.28
768.00	55852.20
769.00	55768.72
770.00	55604.11
771.00	55436.37
772.00	55206.22
773.00	55219.48
774.00	55309.98
775.00	55313.88
776.00	55250.69
777.00	55305.30
778.00	55390.34
779.00	55732.06
780.00	55957.53
781.00	56368.68
782.00	56406.13
783.00	56412.37
784.00	56052.71
785.00	55725.81
786.00	55319.34
787.00	55138.34
788.00	55027.56
789.00	55100.11
790.00	55206.22
791.00	55267.07
792.00	55222.60
793.00	55010.39
794.00	54913.65
795.00	54690.52
796.00	54681.16
797.00	54622.64
798.00	54811.45
799.00	54932.37
800.00	55134.44
801.00	55250.69
802.00	55340.41
803.00	55314.66
804.00	55441.83
805.00	55700.07
806.00	55848.30
807.00	55613.47
808.00	54810.67
809.00	53658.34
810.00	52254.80
811.00	50882.47
812.00	49762.91
813.00	49195.72
814.00	49675.53
815.00	50877.00
816.00	52401.47
817.00	53233.14
818.00	53242.51
819.00	52538.01
820.00	51830.38
821.00	51741.44
822.00	52007.48
823.00	52665.95
824.00	53180.09
825.00	53884.59
826.00	54213.05
827.00	54598.46
828.00	54924.57
829.00	55341.97
830.00	55576.02
831.00	55555.74
832.00	55427.79
833.00	55155.50
834.00	55104.01
835.00	55157.84
836.00	55499.56
837.00	55708.65
838.00	55904.48
839.00	55975.47
840.00	56125.27
841.00	56193.14
842.00	56222.01
843.00	55963.77
844.00	55570.56
845.00	55050.96
846.00	54758.39
847.00	54639.81
848.00	54692.08
849.00	55018.19
850.00	55391.12
851.00	55905.26
852.00	56246.19
853.00	56598.05
854.00	56747.85
855.00	56742.39
856.00	56679.97
857.00	56609.76
858.00	56555.92
859.00	56334.35
860.00	56183.78
861.00	56125.27
862.00	56346.06
863.00	56462.30
864.00	56270.38
865.00	55666.52
866.00	54812.23
867.00	53776.15
868.00	52849.30
869.00	52286.79
870.00	52195.51
871.00	52445.94
872.00	52882.06
873.00	53513.23
874.00	54213.83
875.00	54785.70
876.00	55121.96
877.00	55316.22
878.00	55444.95
879.00	55764.04
880.00	56059.73
881.00	56448.26
882.00	56712.74
883.00	56838.35
884.00	56698.70
885.00	56309.39
886.00	55853.76
887.00	55576.02
888.00	55458.99
889.00	55533.89
890.00	55657.16
891.00	55903.70
892.00	56237.61
893.00	56413.93
894.00	56615.22
895.00	56678.41
896.00	56722.10
897.00	56517.70
898.00	56257.90
899.00	56012.14
900.00	55746.88
901.00	55380.20
902.00	54893.36
903.00	54318.37
904.00	53876.01
905.00	53827.64
906.00	53989.14
907.00	54474.41
908.00	54871.52
909.00	55366.15
910.00	55455.87
911.00	55352.11
912.00	55087.63
913.00	55019.75
914.00	55001.03
915.00	55146.14
916.00	55213.24
917.00	55342.75
918.00	55570.56
919.00	55771.07
920.00	56059.73
921.00	56190.80
922.00	56319.53
923.00	56236.83
924.00	56008.24
925.00	55669.64
926.00	55344.31
927.00	54887.90
928.00	54341.00
929.00	54042.97
930.00	53969.63
931.00	54297.31
932.00	54628.10
933.00	55073.59
934.00	55240.54
935.00	55198.41
936.00	55182.81
937.00	55231.18
938.00	55178.13
939.00	55104.01
940.00	54966.70
941.00	54804.42
942.00	54539.16
943.00	54287.17
944.00	54074.96
945.00	53881.47
946.00	53645.08
947.00	53432.87
948.00	53325.21
949.00	53169.17
950.00	53076.33
951.00	52893.77
952.00	52787.66
953.00	52779.08
954.00	53043.56
955.00	53421.17
956.00	53805.80
957.00	53962.61
958.00	54168.58
959.00	54314.47
960.00	54206.81
961.00	54002.40
962.00	53804.23
963.00	53818.28
964.00	53790.97
965.00	53689.55
966.00	53648.20
967.00	53752.74
968.00	53968.07
969.00	54136.59
970.00	54448.66
971.00	54748.25
972.00	54923.01
973.00	54763.07
974.00	54587.53
975.00	54435.40
976.00	54399.51
977.00	54220.85
978.00	54113.19
979.00	54005.52
980.00	53948.57
981.00	54144.39
982.00	54103.82
983.00	54126.45
984.00	53853.39
985.00	53810.48
986.00	53800.33
987.00	53734.80
988.00	53854.95
989.00	53560.82
990.00	53510.11
991.00	53068.53
992.00	53013.91
993.00	52697.16
994.00	52818.09
995.00	52925.75
996.00	53321.30
997.00	53590.47
998.00	53848.71
999.00	53958.71
1000.00	53941.55
1001.00	53884.59
1002.00	53787.07
1003.00	53655.22
1004.00	53717.64
1005.00	53756.64
1006.00	53846.36
1007.00	53624.01
1008.00	53525.71
1009.00	53336.91
1010.00	53343.93
1011.00	53081.01
1012.00	53100.51
1013.00	52959.30
1014.00	53153.57
1015.00	53123.92
1016.00	53333.79
1017.00	53521.81
1018.00	53704.37
1019.00	53808.14
1020.00	53704.37
1021.00	53507.77
1022.00	53076.33
1023.00	52743.97
1024.00	52604.32
1025.00	52715.89
1026.00	52901.57
1027.00	52958.52
1028.00	53024.06
1029.00	53016.25
1030.00	53184.77
1031.00	53435.21
1032.00	53675.51
1033.00	53784.73
1034.00	53707.49
1035.00	53655.22
1036.00	53653.66
1037.00	53531.17
1038.00	53414.15
1039.00	53166.83
1040.00	53065.41
1041.00	52955.40
1042.00	52871.92
1043.00	52761.92
1044.00	52558.29
1045.00	52477.15
1046.00	52301.61
1047.00	52108.91
1048.00	51763.29
1049.00	51643.14
1050.00	51663.42
1051.00	51855.35
1052.00	52076.92
1053.00	52310.19
1054.00	52274.30
1055.00	52165.08
1056.00	51816.34
1057.00	51673.57
1058.00	51270.22
1059.00	50856.72
1060.00	50487.70
1061.00	50351.94
1062.00	50534.51
1063.00	50656.21
1064.00	50692.88
1065.00	50697.56
1066.00	50644.51
1067.00	50652.31
1068.00	50683.52
1069.00	50962.82
1070.00	51361.50
1071.00	51857.69
1072.00	52136.99
1073.00	52201.75
1074.00	51923.22
1075.00	51544.06
1076.00	51189.86
1077.00	50949.56
1078.00	50840.34
1079.00	50859.06
1080.00	50818.49
1081.00	50891.83
1082.00	51011.20
1083.00	51186.74
1084.00	51314.69
1085.00	51324.83
1086.00	51281.92
1087.00	51254.61
1088.00	51105.60
1089.00	50877.79
1090.00	50610.96
1091.00	50420.60
1092.00	50470.53
1093.00	50450.25
1094.00	50506.42
1095.00	50552.45
1096.00	50539.97
1097.00	50579.76
1098.00	50332.44
1099.00	50110.09
1100.00	49733.26
1101.00	49424.31
1102.00	49103.66
1103.00	48951.52
1104.00	48846.20
1105.00	49109.90
1106.00	49075.57
1107.00	49266.72
1108.00	49339.27
1109.00	49605.31
1110.00	49825.32
1111.00	49854.19
1112.00	50051.58
1113.00	50103.07
1114.00	50110.09
1115.00	49746.53
1116.00	49341.61
1117.00	48971.81
1118.00	48762.72
1119.00	48386.68
1120.00	48033.25
1121.00	47892.82
1122.00	48099.57
1123.00	48339.08
1124.00	48402.28
1125.00	48306.32
1126.00	48257.95
1127.00	48243.12
1128.00	48137.80
1129.00	48006.73
1130.00	47590.11
1131.00	47115.76
1132.00	46596.17
1133.00	46220.12
1134.00	45995.43
1135.00	45929.11
1136.00	46146.00
1137.00	46515.81
1138.00	46847.38
1139.00	47365.42
1140.00	47807.78
1141.00	48083.19
1142.00	48058.22
1143.00	48025.45
1144.00	48034.03
1145.00	47965.38
1146.00	47900.62
1147.00	47847.57
1148.00	47787.50
1149.00	47491.03
1150.00	47289.74
1151.00	47158.67
1152.00	47353.72
1153.00	47288.18
1154.00	47137.61
1155.00	46842.70
1156.00	46595.38
1157.00	46410.48
1158.00	46200.61
1159.00	45975.92
1160.00	45676.33
1161.00	45572.57
1162.00	45522.64
1163.00	45556.97
1164.00	45453.98
1165.00	45430.58
1166.00	45253.48
1167.00	45379.87
1168.00	45565.55
1169.00	45833.93
1170.00	45783.22
1171.00	45719.24
1172.00	45552.29
1173.00	45517.18
1174.00	45393.91
1175.00	45413.41
1176.00	45232.41
1177.00	44933.60
1178.00	44559.12
1179.00	44170.59
1180.00	44018.46
1181.00	44069.17
1182.00	44189.31
1183.00	44169.03
1184.00	44389.04
1185.00	44513.09
1186.00	44769.77
1187.00	44883.67
1188.00	45063.11
1189.00	45167.66
1190.00	45005.38
1191.00	45130.99
1192.00	44998.36
1193.00	45041.27
1194.00	44848.57
1195.00	45020.98
1196.00	45134.11
1197.00	45108.36
1198.00	45016.30
1199.00	44970.27
1200.00	45099.00
1201.00	45290.93
1202.00	45386.89
1203.00	45528.88
1204.00	45570.23
1205.00	45716.12
1206.00	45663.07
1207.00	45683.36
1208.00	45599.10
1209.00	45538.24
1210.00	45403.27
1211.00	45308.09
1212.00	45388.45
1213.00	45450.08
1214.00	45336.18
1215.00	45235.53
1216.00	45087.30
1217.00	44994.46
1218.00	44946.87
1219.00	44837.64
1220.00	44707.35
1221.00	44280.60
1222.00	44067.61
1223.00	43870.22
1224.00	43597.94
1225.00	43277.29
1226.00	42996.42
1227.00	43071.32
1228.00	43196.15
1229.00	43295.23
1230.00	43439.56
1231.00	43510.56
1232.00	43629.93
1233.00	43610.42
1234.00	43635.39
1235.00	43677.52
1236.00	43688.44
1237.00	43498.08
1238.00	43306.15
1239.00	43015.15
1240.00	42816.98
1241.00	42422.21
1242.00	41754.38
1243.00	40713.62
1244.00	39403.70
1245.00	38252.94
1246.00	37507.86
1247.00	37048.34
1248.00	36901.67
1249.00	36875.14
1250.00	37058.48
1251.00	37734.12
1252.00	38601.68
1253.00	39605.77
1254.00	40305.59
1255.00	40686.31
1256.00	41216.83
1257.00	41532.03
1258.00	41604.58
1259.00	41266.77
1260.00	41017.89
1261.00	40971.08
1262.00	41096.69
1263.00	41029.59
1264.00	40865.75
1265.00	40659.01
1266.00	40570.85
1267.00	40777.59
1268.00	41006.97
1269.00	41077.96
1270.00	40872.78
1271.00	40659.01
1272.00	40707.38
1273.00	40782.27
1274.00	41028.03
1275.00	40927.39
1276.00	40855.61
1277.00	40456.16
1278.00	40359.42
1279.00	40172.17
1280.00	39881.17
1281.00	39649.46
1282.00	39555.05
1283.00	39597.96
1284.00	39406.04
1285.00	39466.11
1286.00	39803.15
1287.00	40022.38
1288.00	40094.16
1289.00	40196.36
1290.00	40391.40
1291.00	40482.69
1292.00	40377.36
1293.00	40265.80
1294.00	40181.54
1295.00	40150.33
1296.00	40168.27
1297.00	40086.36
1298.00	39959.19
1299.00	39905.35
1300.00	39869.47
1301.00	39821.87
1302.00	39686.90
1303.00	39632.29
1304.00	39565.98
1305.00	39655.70
1306.00	39672.08
1307.00	39557.39
1308.00	39350.65
1309.00	39300.72
1310.00	39555.83
1311.00	39664.28
1312.00	39750.10
1313.00	39612.01
1314.00	39675.98
1315.00	39573.00
1316.00	39612.01
1317.00	39452.07
1318.00	39354.55
1319.00	39082.27
1320.00	39030.77
1321.00	38992.54
1322.00	39021.41
1323.00	38986.30
1324.00	38928.57
1325.00	38859.13
1326.00	38738.21
1327.00	38607.14
1328.00	38405.07
1329.00	38170.24
1330.00	38172.58
1331.00	38408.97
1332.00	38690.62
1333.00	38905.94
1334.00	39015.17
1335.00	39133.76
1336.00	39177.45
1337.00	39239.86
1338.00	39238.30
1339.00	39194.61
1340.00	39243.76
1341.00	39252.34
1342.00	39147.80
1343.00	39061.20
1344.00	38858.35
1345.00	38862.26
1346.00	38744.45
1347.00	38836.51
1348.00	38861.47
1349.00	38770.97
1350.00	38510.39
1351.00	38373.86
1352.00	38093.00
1353.00	38139.03
1354.00	37936.18
1355.00	38075.84
1356.00	37958.81
1357.00	38055.55
1358.00	37922.14
1359.00	38037.61
1360.00	38022.78
1361.00	38234.21
1362.00	38095.34
1363.00	38121.09
1364.00	37780.15
1365.00	37675.60
1366.00	37457.15
1367.00	37275.37
1368.00	37113.09
1369.00	37060.04
1370.00	37140.40
1371.00	37180.19
1372.00	36931.31
1373.00	36925.07
1374.00	36782.30
1375.00	36739.39
1376.00	36622.36
1377.00	36557.61
1378.00	36691.80
1379.00	36629.38
1380.00	36411.71
1381.00	35967.01
1382.00	35701.75
1383.00	35767.29
1384.00	35885.09
1385.00	36079.36
1386.00	36066.88
1387.00	36235.39
1388.00	36335.26
1389.00	36453.84
1390.00	36421.86
1391.00	36227.59
1392.00	35981.84
1393.00	35619.05
1394.00	35370.96
1395.00	35264.85
1396.00	35385.78
1397.00	35358.47
1398.00	35466.92
1399.00	35473.16
1400.00	35498.12
1401.00	35292.94
1402.00	35036.26
1403.00	34717.17
1404.00	34394.95
1405.00	34227.99
1406.00	34231.12
1407.00	34432.40
1408.00	34461.27
1409.00	34617.30
1410.00	34741.35
1411.00	34898.17
1412.00	34905.19
1413.00	34799.87
1414.00	34778.80
1415.00	34635.25
1416.00	34466.73
1417.00	34146.86
1418.00	33794.22
1419.00	33411.15
1420.00	33098.30
1421.00	32947.72
1422.00	32868.92
1423.00	32865.02
1424.00	32908.71
1425.00	33011.70
1426.00	33016.38
1427.00	33158.37
1428.00	33241.07
1429.00	33543.00
1430.00	33810.60
1431.00	34053.23
1432.00	34041.53
1433.00	33934.65
1434.00	33899.54
1435.00	34002.52
1436.00	33855.07
1437.00	33655.34
1438.00	33312.06
1439.00	33121.70
1440.00	32900.13
1441.00	33003.89
1442.00	33234.83
1443.00	33514.13
1444.00	33564.84
1445.00	33512.57
1446.00	33493.85
1447.00	33517.25
1448.00	33558.60
1449.00	33486.82
1450.00	33390.08
1451.00	33337.03
1452.00	33229.37
1453.00	32911.83
1454.00	32563.09
1455.00	32166.76
1456.00	32068.46
1457.00	31997.46
1458.00	32322.02
1459.00	32311.10
1460.00	32395.35
1461.00	32237.76
1462.00	32209.67
1463.00	31971.72
1464.00	31802.42
1465.00	31786.04
1466.00	31639.36
1467.00	31508.29
1468.00	31281.26
1469.00	31317.15
1470.00	31375.66
1471.00	31278.14
1472.00	31051.11
1473.00	30750.74
1474.00	30696.91
1475.00	30601.72
1476.00	30558.03
1477.00	30626.69
1478.00	30607.19
1479.00	30447.25
1480.00	30121.91
1481.00	30103.97
1482.00	30156.24
1483.00	30074.32
1484.00	30043.90
1485.00	29990.84
1486.00	30176.53
1487.00	30212.42
1488.00	30379.37
1489.00	30426.18
1490.00	30304.48
1491.00	30107.09
1492.00	29752.89
1493.00	29547.70
1494.00	29056.19
1495.00	28492.90
1496.00	27902.31
1497.00	27574.63
1498.00	27445.90
1499.00	27597.26
1500.00	28016.99
1501.00	28352.47
1502.00	28628.65
1503.00	28632.55
1504.00	28862.71
1505.00	28782.35
1506.00	28687.95
1507.00	28499.14
1508.00	28344.67
1509.00	28218.28
1510.00	28063.02
1511.00	27957.70
1512.00	27957.70
1513.00	27969.40
1514.00	28085.65
1515.00	28070.04
1516.00	28056.78
1517.00	28061.46
1518.00	28132.46
1519.00	28148.06
1520.00	28112.17
1521.00	27868.76
1522.00	27713.50
1523.00	27455.26
1524.00	27513.78
1525.00	27569.17
1526.00	27868.76
1527.00	28076.29
1528.00	28187.85
1529.00	28246.37
1530.00	28066.14
1531.00	28141.82
1532.00	28057.56
1533.00	28002.17
1534.00	27827.41
1535.00	27649.53
1536.00	27647.97
1537.00	27583.21
1538.00	27764.21
1539.00	27839.89
1540.00	27917.91
1541.00	27853.94
1542.00	27917.13
1543.00	28041.96
1544.00	28080.19
1545.00	28070.04
1546.00	28028.70
1547.00	27921.03
1548.00	27866.42
1549.00	27717.40
1550.00	27600.38
1551.00	27433.42
1552.00	27374.13
1553.00	27391.29
1554.00	27424.84
1555.00	27527.82
1556.00	27630.02
1557.00	27622.22
1558.00	27637.83
1559.00	27732.23
1560.00	27857.06
1561.00	27873.44
1562.00	27670.59
1563.00	27744.71
1564.00	27672.93
1565.00	27718.18
1566.00	27565.27
1567.00	27626.12
1568.00	27670.59
1569.00	27700.24
1570.00	27565.27
1571.00	27501.29
1572.00	27265.68
1573.00	27205.61
1574.00	27025.39
1575.00	26990.28
1576.00	26800.69
1577.00	26669.62
1578.00	26494.86
1579.00	26381.74
1580.00	26347.41
1581.00	26405.14
1582.00	26593.17
1583.00	26559.62
1584.00	26526.07
1585.00	26274.07
1586.00	26182.01
1587.00	25913.63
1588.00	25950.30
1589.00	26015.83
1590.00	26065.77
1591.00	26112.58
1592.00	26025.98
1593.00	26150.03
1594.00	26197.62
1595.00	26249.89
1596.00	26324.01
1597.00	26242.87
1598.00	26197.62
1599.00	26013.49
1600.00	25801.29
1601.00	25727.17
1602.00	25619.50
1603.00	25632.77
1604.00	25719.37
1605.00	25866.04
1606.00	25868.38
1607.00	25656.17
1608.00	25610.14
1609.00	25611.70
1610.00	25647.59
1611.00	25516.52
1612.00	25270.76
1613.00	25107.71
1614.00	24966.49
1615.00	25086.64
1616.00	25049.19
1617.00	25056.22
1618.00	24870.53
1619.00	24842.45
1620.00	24730.10
1621.00	24763.65
1622.00	24834.64
1623.00	24661.44
1624.00	24552.22
1625.00	24317.39
1626.00	24358.74
1627.00	24233.13
1628.00	24091.13
1629.00	23951.48
1630.00	23931.20
1631.00	23927.30
1632.00	23934.32
1633.00	23773.60
1634.00	23885.95
1635.00	23820.41
1636.00	23902.33
1637.00	23729.91
1638.00	23626.93
1639.00	23585.58
1640.00	23315.64
1641.00	23122.93
1642.00	22716.46
1643.00	22611.14
1644.00	22491.77
1645.00	22636.88
1646.00	22815.54
1647.00	23214.99
1648.00	23521.60
1649.00	23748.64
1650.00	23871.12
1651.00	23825.09
1652.00	23863.32
1653.00	23891.41
1654.00	23818.07
1655.00	23600.40
1656.00	23119.81
1657.00	22958.31
1658.00	22720.36
1659.00	22770.29
1660.00	22789.80
1661.00	22994.20
1662.00	23170.52
1663.00	23263.36
1664.00	23417.84
1665.00	23512.24
1666.00	23506.78
1667.00	23405.36
1668.00	23334.36
1669.00	23304.71
1670.00	23236.06
1671.00	23186.91
1672.00	23193.93
1673.00	23242.30
1674.00	23176.76
1675.00	23044.13
1676.00	22871.71
1677.00	22773.41
1678.00	22546.38
1679.00	22442.62
1680.00	22305.31
1681.00	22214.02
1682.00	21956.57
1683.00	21772.44
1684.00	21452.57
1685.00	21049.22
1686.00	20420.39
1687.00	19683.13
1688.00	18827.27
1689.00	18074.40
1690.00	17767.01
1691.00	17812.26
1692.00	18259.30
1693.00	18898.27
1694.00	19604.33
1695.00	20122.37
1696.00	20595.93
1697.00	20996.17
1698.00	21376.89
1699.00	21553.21
1700.00	21678.82
1701.00	21678.82
1702.00	21795.85
1703.00	21865.28
1704.00	21937.84
1705.00	21886.35
1706.00	21887.91
1707.00	21879.33
1708.00	21808.33
1709.00	21747.48
1710.00	21707.69
1711.00	21742.02
1712.00	21707.69
1713.00	21717.83
1714.00	21616.41
1715.00	21616.41
1716.00	21518.11
1717.00	21572.72
1718.00	21617.97
1719.00	21717.05
1720.00	21811.45
1721.00	21823.16
1722.00	21753.72
1723.00	21660.88
1724.00	21572.72
1725.00	21588.32
1726.00	21511.08
1727.00	21502.50
1728.00	21408.88
1729.00	21403.42
1730.00	21391.72
1731.00	21452.57
1732.00	21385.47
1733.00	21246.60
1734.00	21227.88
1735.00	21266.89
1736.00	21270.01
1737.00	20987.58
1738.00	20842.47
1739.00	20688.78
1740.00	20649.77
1741.00	20525.72
1742.00	20493.73
1743.00	20486.71
1744.00	20568.63
1745.00	20448.48
1746.00	20495.29
1747.00	20383.73
1748.00	20482.03
1749.00	20413.37
1750.00	20478.13
1751.00	20502.31
1752.00	20532.74
1753.00	20532.74
1754.00	20499.97
1755.00	20448.48
1756.00	20325.99
1757.00	20233.15
1758.00	20158.25
1759.00	20078.68
1760.00	19962.43
1761.00	19779.09
1762.00	19691.71
1763.00	19715.11
1764.00	19806.39
1765.00	19882.07
1766.00	19776.75
1767.00	19621.49
1768.00	19453.75
1769.00	19452.19
1770.00	19506.02
1771.00	19484.96
1772.00	19445.95
1773.00	19491.20
1774.00	19520.07
1775.00	19456.87
1776.00	19423.33
1777.00	19463.11
1778.00	19463.90
1779.00	19400.70
1780.00	19244.66
1781.00	19172.11
1782.00	19169.77
1783.00	19127.64
1784.00	19046.50
1785.00	18878.76
1786.00	18762.51
1787.00	18732.09
1788.00	18696.98
1789.00	18698.54
1790.00	18615.06
1791.00	18444.20
1792.00	18400.51
1793.00	18451.22
1794.00	18507.40
1795.00	18345.90
1796.00	18224.97
1797.00	17976.87
1798.00	17922.26
1799.00	17914.46
1800.00	17924.60
1801.00	17916.02
1802.00	17881.69
1803.00	17966.73
1804.00	18033.83
1805.00	18004.96
1806.00	18011.20
1807.00	17994.82
1808.00	17881.69
1809.00	17766.23
1810.00	17658.56
1811.00	17598.49
1812.00	17616.43
1813.00	17487.70
1814.00	17567.28
1815.00	17434.65
1816.00	17431.53
1817.00	17255.99
1818.00	17142.86
1819.00	17140.52
1820.00	17048.46
1821.00	17138.96
1822.00	17032.86
1823.00	17018.82
1824.00	16926.75
1825.00	16866.68
1826.00	16937.68
1827.00	16897.89
1828.00	17018.04
1829.00	16986.05
1830.00	16918.95
1831.00	16745.75
1832.00	16630.29
1833.00	16657.59
1834.00	16619.36
1835.00	16491.41
1836.00	16348.64
1837.00	16148.14
1838.00	16123.95
1839.00	16120.83
1840.00	16193.39
1841.00	16176.22
1842.00	16177.00
1843.00	16146.58
1844.00	16084.16
1845.00	15946.07
1846.00	15811.10
1847.00	15642.58
1848.00	15625.42
1849.00	15642.58
1850.00	15619.18
1851.00	15477.18
1852.00	15452.22
1853.00	15489.67
1854.00	15424.13
1855.00	15378.88
1856.00	15364.06
1857.00	15411.65
1858.00	15365.62
1859.00	15261.07
1860.00	15176.03
1861.00	15111.28
1862.00	15023.90
1863.00	14988.79
1864.00	14882.69
1865.00	14835.10
1866.00	14753.18
1867.00	14737.57
1868.00	14714.95
1869.00	14679.06
1870.00	14620.55
1871.00	14560.47
1872.00	14558.13
1873.00	14498.06
1874.00	14466.85
1875.00	14311.60
1876.00	14309.26
1877.00	14124.35
1878.00	14146.20
1879.00	14044.77
1880.00	14123.57
1881.00	14097.83
1882.00	14035.41
1883.00	13955.05
1884.00	13861.43
1885.00	13724.12
1886.00	13605.53
1887.00	13440.92
1888.00	13321.55
1889.00	13245.09
1890.00	13228.71
1891.00	13345.73
1892.00	13482.27
1893.00	13561.84
1894.00	13515.03
1895.00	13323.11
1896.00	13172.53
1897.00	13082.03
1898.00	13017.28
1899.00	12972.03
1900.00	12901.03
1901.00	12928.34
1902.00	12858.12
1903.00	12702.09
1904.00	12228.52
1905.00	11591.89
1906.00	10735.26
1907.00	9856.00
1908.00	8997.80
1909.00	8407.20
1910.00	8044.42
1911.00	7876.68
1912.00	7864.98
1913.00	8126.34
1914.00	8528.91
1915.00	8968.15
1916.00	9344.20
1917.00	9717.12
1918.00	9942.60
1919.00	10008.91
1920.00	9923.09
1921.00	9810.75
1922.00	9640.67
1923.00	9572.01
1924.00	9491.65
1925.00	9540.80
1926.00	9415.20
1927.00	9367.60
1928.00	9333.28
1929.00	9498.67
1930.00	9600.88
1931.00	9691.38
1932.00	9725.71
1933.00	9761.59
1934.00	9786.56
1935.00	9837.27
1936.00	9905.93
1937.00	9923.09
1938.00	9987.85
1939.00	10037.00
1940.00	10068.20
1941.00	10043.24
1942.00	9992.53
1943.00	9998.77
1944.00	9955.86
1945.00	10013.59
1946.00	10015.93
1947.00	9980.82
1948.00	9889.54
1949.00	9867.70
1950.00	9870.04
1951.00	9880.18
1952.00	9767.84
1953.00	9777.98
1954.00	9760.03
1955.00	9754.57
1956.00	9601.66
1957.00	9497.89
1958.00	9476.05
1959.00	9462.79
1960.00	9398.03
1961.00	9295.05
1962.00	9215.47
1963.00	9128.09
1964.00	9146.81
1965.00	9148.37
1966.00	9133.55
1967.00	9081.28
1968.00	9067.24
1969.00	9116.39
1970.00	9108.58
1971.00	9029.01
1972.00	9018.08
1973.00	9038.37
1974.00	9102.34
1975.00	9121.07
1976.00	9016.52
1977.00	8990.00
1978.00	8941.63
1979.00	9025.11
1980.00	9060.99
1981.00	9070.36
1982.00	9041.49
1983.00	8988.44
1984.00	8943.97
1985.00	8922.12
1986.00	8899.50
1987.00	8851.13
1988.00	8777.01
1989.00	8721.62
1990.00	8578.84
1991.00	8532.81
1992.00	8404.86
1993.00	8399.40
1994.00	8313.58
1995.00	8281.60
1996.00	8154.43
1997.00	8105.28
1998.00	8035.06
1999.00	8034.28
2000.00	7979.67
2001.00	7939.88
2002.00	7923.49
2003.00	7924.27
2004.00	7901.65
2005.00	7875.90
2006.00	7802.57
2007.00	7758.88
2008.00	7693.34
2009.00	7554.47
2010.00	7481.13
2011.00	7450.71
2012.00	7528.72
2013.00	7565.39
2014.00	7592.70
2015.00	7550.57
2016.00	7470.21
2017.00	7338.36
2018.00	7291.55
2019.00	7213.53
2020.00	7236.94
2021.00	7216.65
2022.00	7260.34
2023.00	7190.91
2024.00	7094.16
2025.00	7008.34
2026.00	7009.12
2027.00	6961.53
2028.00	6981.04
2029.00	6983.38
2030.00	7055.15
2031.00	7042.67
2032.00	7025.51
2033.00	7031.75
2034.00	7033.31
2035.00	6975.58
2036.00	6910.04
2037.00	6861.67
2038.00	6900.68
2039.00	6867.91
2040.00	6828.12
2041.00	6852.31
2042.00	6885.08
2043.00	6913.16
2044.00	6795.36
2045.00	6715.00
2046.00	6622.16
2047.00	6558.18
>>>>>End Processed Spectral Data<<<<<
