SpectraSuite Data File
++++++++++++++++++++++++++++++++++++
Date: Thu Nov 16 13:32:48 EST 2017
User: cheriyan
Dark Spectrum Present: No
Reference Spectrum Present: No
Number of Sampled Component Spectra: 1
Spectrometers: USB2+H05261
Integration Time (usec): 90000 (USB2+H05261)
Spectra Averaged: 1 (USB2+H05261)
Boxcar Smoothing: 1 (USB2+H05261)
Correct for Electrical Dark: No (USB2+H05261)
Strobe/Lamp Enabled: No (USB2+H05261)
Correct for Detector Non-linearity: No (USB2+H05261)
Correct for Stray Light: No (USB2+H05261)
Number of Pixels in Processed Spectrum: 2048
>>>>>Begin Processed Spectral Data<<<<<
0.00	440.02
1.00	440.02
2.00	410.37
3.00	343.28
4.00	287.89
5.00	257.46
6.00	258.24
7.00	248.10
8.00	222.35
9.00	225.47
10.00	229.37
11.00	248.10
12.00	233.27
13.00	222.35
14.00	226.25
15.00	254.34
16.00	269.94
17.00	266.04
18.00	243.42
19.00	286.33
20.00	308.17
21.00	336.26
22.00	323.77
23.00	769.26
24.00	2464.58
25.00	4290.20
26.00	5614.16
27.00	5687.50
28.00	5551.75
29.00	5367.63
30.00	5124.21
31.00	4996.26
32.00	5114.07
33.00	5268.55
34.00	5284.93
35.00	5107.83
36.00	4865.97
37.00	4709.94
38.00	4655.33
39.00	4763.77
40.00	4897.18
41.00	4960.38
42.00	4890.16
43.00	4785.62
44.00	4844.91
45.00	5068.82
46.00	5412.88
47.00	5730.41
48.00	5938.72
49.00	5942.62
50.00	5877.09
51.00	5817.01
52.00	5893.47
53.00	5971.49
54.00	6103.34
55.00	6289.80
56.00	6556.62
57.00	6790.67
58.00	7092.60
59.00	7332.90
60.00	7520.92
61.00	7495.96
62.00	7309.49
63.00	7134.73
64.00	6885.86
65.00	6672.87
66.00	6369.38
67.00	6175.89
68.00	6062.77
69.00	6163.41
70.00	6328.03
71.00	6547.26
72.00	6727.48
73.00	6944.37
74.00	7080.12
75.00	7069.20
76.00	6889.76
77.00	6596.41
78.00	6332.71
79.00	5982.41
80.00	5731.19
81.00	5443.31
82.00	5247.48
83.00	4997.82
84.00	4808.24
85.00	4728.66
86.00	4638.16
87.00	4646.74
88.00	4639.72
89.00	4766.89
90.00	4964.28
91.00	5254.50
92.00	5637.57
93.00	6058.87
94.00	6438.03
95.00	6712.66
96.00	6730.60
97.00	6669.75
98.00	6494.99
99.00	6363.92
100.00	6248.45
101.00	6260.15
102.00	6449.74
103.00	6704.07
104.00	6847.63
105.00	6818.76
106.00	6689.25
107.00	6667.41
108.00	6669.75
109.00	6725.92
110.00	6783.65
111.00	6848.41
112.00	6834.36
113.00	6775.07
114.00	6756.35
115.00	6903.80
116.00	7241.62
117.00	7630.93
118.00	8026.48
119.00	8375.22
120.00	8656.86
121.00	8693.53
122.00	8621.75
123.00	8587.43
124.00	8692.75
125.00	8889.35
126.00	9142.13
127.00	9437.04
128.00	9649.25
129.00	9719.46
130.00	9586.05
131.00	9260.72
132.00	8790.27
133.00	8331.53
134.00	7798.66
135.00	7169.84
136.00	6363.14
137.00	5543.95
138.00	4901.86
139.00	4661.57
140.00	4880.02
141.00	5465.15
142.00	6162.63
143.00	6942.03
144.00	7672.28
145.00	8443.09
146.00	9132.77
147.00	9671.09
148.00	9962.88
149.00	10137.64
150.00	10169.63
151.00	10021.39
152.00	9531.44
153.00	8741.90
154.00	7773.70
155.00	6807.84
156.00	6076.81
157.00	5879.43
158.00	6171.21
159.00	6991.96
160.00	8061.59
161.00	9355.12
162.00	10481.70
163.00	11360.18
164.00	11885.24
165.00	12400.94
166.00	12817.55
167.00	13229.49
168.00	13585.25
169.00	13795.90
170.00	13942.57
171.00	13929.31
172.00	14015.13
173.00	14157.12
174.00	14210.17
175.00	14254.64
176.00	14292.09
177.00	14490.26
178.00	14787.50
179.00	15039.50
180.00	15264.19
181.00	15437.39
182.00	15573.14
183.00	15704.21
184.00	15740.10
185.00	15751.81
186.00	15669.11
187.00	15684.71
188.00	15537.26
189.00	15321.93
190.00	15098.80
191.00	15197.88
192.00	15476.40
193.00	15857.91
194.00	15957.77
195.00	15877.41
196.00	15534.92
197.00	15379.66
198.00	15521.65
199.00	15726.06
200.00	15865.71
201.00	15781.45
202.00	15829.82
203.00	15704.99
204.00	15523.21
205.00	15266.53
206.00	15126.88
207.00	15194.76
208.00	15364.84
209.00	15558.32
210.00	15656.62
211.00	15606.69
212.00	15619.96
213.00	15797.84
214.00	16016.29
215.00	16360.34
216.00	16695.04
217.00	17072.65
218.00	17335.57
219.00	17473.66
220.00	17610.97
221.00	17586.79
222.00	17458.06
223.00	16876.82
224.00	16272.96
225.00	15594.21
226.00	15459.24
227.00	15644.92
228.00	16093.52
229.00	16590.50
230.00	17203.72
231.00	17777.15
232.00	18244.48
233.00	18578.39
234.00	18754.71
235.00	18865.50
236.00	18885.78
237.00	18838.19
238.00	18774.22
239.00	18714.14
240.00	18625.98
241.00	18515.20
242.00	18392.71
243.00	18562.79
244.00	18972.38
245.00	19327.36
246.00	19420.99
247.00	19359.35
248.00	19186.15
249.00	19165.87
250.00	19240.76
251.00	19348.43
252.00	19459.21
253.00	19473.26
254.00	19687.03
255.00	20026.40
256.00	20372.02
257.00	20750.41
258.00	21139.72
259.00	21217.74
260.00	21079.64
261.00	20517.14
262.00	20192.58
263.00	19779.09
264.00	19681.56
265.00	19577.02
266.00	19708.09
267.00	19984.27
268.00	20180.88
269.00	20228.47
270.00	20237.05
271.00	20323.65
272.00	20616.22
273.00	20797.22
274.00	20895.52
275.00	20780.84
276.00	20452.38
277.00	20086.48
278.00	19873.49
279.00	20105.98
280.00	20723.10
281.00	21289.51
282.00	21795.85
283.00	22119.62
284.00	22292.82
285.00	22306.87
286.00	22131.33
287.00	21872.31
288.00	21458.03
289.00	20995.39
290.00	20406.35
291.00	19912.50
292.00	19644.12
293.00	19931.22
294.00	20404.01
295.00	20780.06
296.00	21010.99
297.00	20989.92
298.00	21030.49
299.00	21030.49
300.00	21171.71
301.00	20934.53
302.00	20853.39
303.00	20693.46
304.00	20852.61
305.00	20811.26
306.00	20624.80
307.00	20466.42
308.00	20184.00
309.00	20137.97
310.00	20242.51
311.00	20599.84
312.00	20808.92
313.00	20751.97
314.00	20239.39
315.00	19523.19
316.00	19126.08
317.00	19132.32
318.00	19543.47
319.00	19802.49
320.00	20229.25
321.00	20340.04
322.00	20283.08
323.00	19947.61
324.00	19666.74
325.00	19513.83
326.00	19413.18
327.00	19350.77
328.00	18817.13
329.00	18064.25
330.00	17130.38
331.00	16287.79
332.00	15516.97
333.00	14977.87
334.00	14749.28
335.00	14977.87
336.00	15641.80
337.00	16893.21
338.00	18672.79
339.00	20521.82
340.00	22177.36
341.00	22871.72
342.00	22598.65
343.00	21824.72
344.00	21212.28
345.00	21213.84
346.00	21777.12
347.00	22443.40
348.00	22944.27
349.00	22803.84
350.00	21958.13
351.00	20960.28
352.00	20190.24
353.00	20226.91
354.00	20799.56
355.00	21482.22
356.00	22071.25
357.00	22409.85
358.00	22688.37
359.00	22946.61
360.00	23115.13
361.00	23552.03
362.00	23892.19
363.00	24296.32
364.00	24439.87
365.00	24421.93
366.00	24408.67
367.00	24210.50
368.00	24109.86
369.00	23672.18
370.00	23581.68
371.00	23278.97
372.00	23165.06
373.00	22544.04
374.00	21959.69
375.00	21504.84
376.00	21271.57
377.00	21348.81
378.00	21742.80
379.00	22412.97
380.00	23206.41
381.00	23890.63
382.00	24460.94
383.00	24750.38
384.00	24569.38
385.00	24161.35
386.00	23917.15
387.00	24169.93
388.00	24748.04
389.00	25435.38
390.00	25989.31
391.00	26400.46
392.00	26729.70
393.00	27034.75
394.00	27363.20
395.00	27675.27
396.00	27800.88
397.00	28115.30
398.00	28237.78
399.00	28457.79
400.00	28243.24
401.00	28140.26
402.00	27974.86
403.00	28156.64
404.00	28435.95
405.00	28657.52
406.00	28858.81
407.00	28604.47
408.00	28358.71
409.00	28274.45
410.00	28603.69
411.00	28832.28
412.00	28474.18
413.00	27743.93
414.00	27033.19
415.00	26531.53
416.00	26308.40
417.00	26459.76
418.00	26998.08
419.00	27485.69
420.00	27939.76
421.00	28210.48
422.00	28687.17
423.00	29134.99
424.00	29462.66
425.00	29543.80
426.00	29380.74
427.00	28980.51
428.00	28809.65
429.00	28733.20
430.00	28989.10
431.00	29073.35
432.00	29056.97
433.00	28954.77
434.00	28993.00
435.00	29154.49
436.00	29412.73
437.00	29783.32
438.00	30099.29
439.00	30446.47
440.00	30914.58
441.00	31409.21
442.00	31744.69
443.00	31515.31
444.00	31311.69
445.00	31111.96
446.00	30871.67
447.00	30753.86
448.00	30636.83
449.00	30520.59
450.00	30226.46
451.00	29756.01
452.00	29247.33
453.00	28571.70
454.00	28174.59
455.00	28084.09
456.00	28419.56
457.00	28949.31
458.00	29442.38
459.00	29975.24
460.00	30134.40
461.00	30210.07
462.00	30258.45
463.00	30052.48
464.00	30035.31
465.00	29725.58
466.00	29881.62
467.00	30150.78
468.00	30252.98
469.00	30636.05
470.00	30902.09
471.00	31467.72
472.00	31604.25
473.00	31546.52
474.00	31633.12
475.00	31724.40
476.00	32087.96
477.00	32406.28
478.00	32549.83
479.00	32646.57
480.00	32127.75
481.00	31910.86
482.00	31334.31
483.00	31121.32
484.00	31125.22
485.00	31391.27
486.00	31679.93
487.00	31651.84
488.00	31604.25
489.00	31559.00
490.00	31438.08
491.00	31392.83
492.00	31532.48
493.00	31793.06
494.00	31856.25
495.00	31925.69
496.00	32210.45
497.00	32454.65
498.00	32662.18
499.00	32683.24
500.00	32712.11
501.00	32733.17
502.00	32899.35
503.00	33026.52
504.00	33411.93
505.00	33387.74
506.00	33553.14
507.00	33511.01
508.00	33532.08
509.00	33447.04
510.00	33354.97
511.00	33195.82
512.00	33219.22
513.00	32919.63
514.00	32918.85
515.00	32763.60
516.00	32740.19
517.00	32270.53
518.00	32055.20
519.00	31702.56
520.00	31942.07
521.00	32053.64
522.00	32357.91
523.00	32645.01
524.00	33019.50
525.00	33316.75
526.00	33143.55
527.00	32687.14
528.00	32115.27
529.00	31666.67
530.00	31346.79
531.00	31368.64
532.00	31574.61
533.00	31974.06
534.00	32087.18
535.00	32290.03
536.00	31930.37
537.00	31800.86
538.00	31853.13
539.00	32215.91
540.00	32515.50
541.00	32467.13
542.00	32545.15
543.00	32630.97
544.00	32699.62
545.00	32750.34
546.00	32449.97
547.00	32177.68
548.00	31806.32
549.00	31761.07
550.00	31670.57
551.00	31814.12
552.00	31805.54
553.00	32070.02
554.00	32328.26
555.00	32798.71
556.00	33177.87
557.00	33782.51
558.00	34466.73
559.00	34994.13
560.00	35066.69
561.00	34845.90
562.00	34369.99
563.00	33928.41
564.00	33451.72
565.00	33660.02
566.00	33958.05
567.00	34235.02
568.00	34249.84
569.00	34160.12
570.00	34657.87
571.00	35282.02
572.00	35849.21
573.00	35860.13
574.00	35576.14
575.00	35398.26
576.00	35527.77
577.00	35534.01
578.00	35525.43
579.00	35291.38
580.00	35280.46
581.00	35310.10
582.00	35393.58
583.00	35404.50
584.00	35713.45
585.00	36066.10
586.00	36554.49
587.00	36685.56
588.00	37012.45
589.00	37549.99
590.00	38051.65
591.00	38510.39
592.00	38724.94
593.00	38802.18
594.00	38650.83
595.00	38367.62
596.00	38472.95
597.00	38631.32
598.00	39267.17
599.00	39807.05
600.00	40495.95
601.00	40569.29
602.00	40708.16
603.00	40563.04
604.00	40809.58
605.00	41254.28
606.00	41466.49
607.00	41588.98
608.00	41553.09
609.00	41950.20
610.00	42327.03
611.00	42596.19
612.00	42860.67
613.00	43187.56
614.00	43342.04
615.00	43289.77
616.00	43077.56
617.00	43163.38
618.00	43517.58
619.00	43704.04
620.00	43839.79
621.00	43984.13
622.00	44219.74
623.00	44615.29
624.00	44556.00
625.00	44382.80
626.00	44010.65
627.00	44035.62
628.00	44371.10
629.00	44809.56
630.00	45234.75
631.00	45103.68
632.00	44265.77
633.00	43347.50
634.00	42016.52
635.00	40395.31
636.00	38525.22
637.00	37725.53
638.00	38121.09
639.00	39349.09
640.00	40637.16
641.00	41854.24
642.00	42657.82
643.00	43576.09
644.00	44440.53
645.00	45271.42
646.00	46058.62
647.00	46701.49
648.00	47367.76
649.00	47676.71
650.00	47571.39
651.00	47233.57
652.00	46738.94
653.00	46921.50
654.00	47245.27
655.00	48281.35
656.00	49108.34
657.00	50121.79
658.00	50599.26
659.00	50930.06
660.00	51071.27
661.00	51016.66
662.00	50892.61
663.00	50660.90
664.00	50586.78
665.00	50483.80
666.00	50586.00
667.00	50549.33
668.00	50219.31
669.00	49493.75
670.00	49058.41
671.00	49070.11
672.00	49649.78
673.00	50375.35
674.00	51327.95
675.00	52019.97
676.00	52346.08
677.00	52273.52
678.00	51995.00
679.00	51738.32
680.00	51698.53
681.00	51927.13
682.00	52464.67
683.00	53022.50
684.00	53658.34
685.00	54074.96
686.00	54379.23
687.00	54411.99
688.00	54192.76
689.00	53742.60
690.00	53411.81
691.00	53343.93
692.00	53432.87
693.00	53773.81
694.00	54135.03
695.00	54571.93
696.00	54713.92
697.00	54761.51
698.00	54836.41
699.00	54928.47
700.00	55076.71
701.00	55128.20
702.00	55006.49
703.00	54575.83
704.00	54003.96
705.00	53538.97
706.00	53461.74
707.00	53724.66
708.00	54101.48
709.00	54497.03
710.00	54893.36
711.00	55281.89
712.00	55481.62
713.00	55498.00
714.00	55324.80
715.00	55046.28
716.00	54589.09
717.00	54222.41
718.00	53844.02
719.00	53809.70
720.00	53831.54
721.00	53898.64
722.00	53774.59
723.00	53589.69
724.00	53527.27
725.00	53435.99
726.00	53411.02
727.00	53672.38
728.00	53939.21
729.00	54312.91
730.00	54507.96
731.00	54814.57
732.00	54977.62
733.00	55050.18
734.00	54927.69
735.00	54798.18
736.00	54250.50
737.00	53862.75
738.00	53574.08
739.00	53799.55
740.00	54156.10
741.00	54659.31
742.00	54948.76
743.00	55196.85
744.00	55309.20
745.00	55668.08
746.00	55955.97
747.00	56289.10
748.00	56455.28
749.00	56715.86
750.00	56747.85
751.00	56538.76
752.00	56308.61
753.00	55951.29
754.00	55871.71
755.00	55695.39
756.00	55735.96
757.00	55590.84
758.00	55431.69
759.00	55075.15
760.00	54823.15
761.00	54671.01
762.00	54830.95
763.00	55212.46
764.00	55569.78
765.00	55970.79
766.00	56344.50
767.00	56702.60
768.00	56761.11
769.00	56568.41
770.00	56344.50
771.00	56216.55
772.00	56218.89
773.00	56175.98
774.00	56227.47
775.00	56128.39
776.00	56103.42
777.00	56168.96
778.00	56346.84
779.00	56611.32
780.00	56782.96
781.00	57142.62
782.00	57304.12
783.00	57330.64
784.00	56983.46
785.00	56560.61
786.00	56207.18
787.00	56037.89
788.00	56025.40
789.00	56113.56
790.00	56133.85
791.00	56247.75
792.00	56138.53
793.00	56069.09
794.00	55863.91
795.00	55583.82
796.00	55491.76
797.00	55348.21
798.00	55585.38
799.00	55697.73
800.00	55886.53
801.00	55934.90
802.00	56039.45
803.00	56147.11
804.00	56371.02
805.00	56676.07
806.00	56795.44
807.00	56499.75
808.00	55766.38
809.00	54661.65
810.00	53382.16
811.00	51941.17
812.00	50852.82
813.00	50270.81
814.00	50862.96
815.00	52011.38
816.00	53498.40
817.00	54179.50
818.00	54301.21
819.00	53756.64
820.00	53115.34
821.00	52854.76
822.00	53054.48
823.00	53652.10
824.00	54206.03
825.00	54676.47
826.00	55068.12
827.00	55495.66
828.00	55870.15
829.00	56150.23
830.00	56329.67
831.00	56383.51
832.00	56390.53
833.00	56129.17
834.00	55989.52
835.00	55951.29
836.00	56217.33
837.00	56501.31
838.00	56669.83
839.00	56767.35
840.00	56878.14
841.00	56946.01
842.00	56995.95
843.00	56791.54
844.00	56418.61
845.00	55979.37
846.00	55748.44
847.00	55693.83
848.00	55797.59
849.00	55970.01
850.00	56327.33
851.00	56698.70
852.00	57116.87
853.00	57427.38
854.00	57685.62
855.00	57785.49
856.00	57778.46
857.00	57595.90
858.00	57324.40
859.00	57092.69
860.00	56988.92
861.00	57140.28
862.00	57364.19
863.00	57462.49
864.00	57187.87
865.00	56630.04
866.00	55808.51
867.00	54908.97
868.00	53982.90
869.00	53424.29
870.00	53108.32
871.00	53251.87
872.00	53709.05
873.00	54430.72
874.00	55164.87
875.00	55725.03
876.00	56087.04
877.00	56254.00
878.00	56418.61
879.00	56648.77
880.00	57009.99
881.00	57315.82
882.00	57492.92
883.00	57642.71
884.00	57453.13
885.00	57162.12
886.00	56698.70
887.00	56455.28
888.00	56408.47
889.00	56511.45
890.00	56661.25
891.00	56899.20
892.00	57212.06
893.00	57458.59
894.00	57577.18
895.00	57484.34
896.00	57358.73
897.00	57166.80
898.00	57037.30
899.00	56810.26
900.00	56602.74
901.00	56181.44
902.00	55796.81
903.00	55214.80
904.00	54846.55
905.00	54662.43
906.00	54875.42
907.00	55263.17
908.00	55657.16
909.00	56082.36
910.00	56288.32
911.00	56271.94
912.00	55939.58
913.00	55759.36
914.00	55618.93
915.00	55767.94
916.00	55810.85
917.00	56094.06
918.00	56380.38
919.00	56656.57
920.00	56926.51
921.00	57123.89
922.00	57198.01
923.00	57031.83
924.00	56728.34
925.00	56386.63
926.00	56129.17
927.00	55714.89
928.00	55280.33
929.00	54994.01
930.00	55002.59
931.00	55287.35
932.00	55649.36
933.00	55938.02
934.00	56133.07
935.00	56136.19
936.00	56072.99
937.00	56092.50
938.00	55980.93
939.00	55967.67
940.00	55915.40
941.00	55695.39
942.00	55468.36
943.00	55041.60
944.00	54956.56
945.00	54756.83
946.00	54603.14
947.00	54440.86
948.00	54344.90
949.00	54236.45
950.00	54035.17
951.00	53848.71
952.00	53730.90
953.00	53822.18
954.00	54074.18
955.00	54451.00
956.00	54763.85
957.00	54951.10
958.00	55144.58
959.00	55149.26
960.00	55031.46
961.00	54790.38
962.00	54669.45
963.00	54629.66
964.00	54608.60
965.00	54488.45
966.00	54534.48
967.00	54585.19
968.00	54834.07
969.00	55016.63
970.00	55423.89
971.00	55725.81
972.00	55871.71
973.00	55614.25
974.00	55461.33
975.00	55317.78
976.00	55345.09
977.00	55157.06
978.00	55105.57
979.00	55030.68
980.00	54992.45
981.00	55087.63
982.00	55089.19
983.00	55052.52
984.00	54887.12
985.00	54760.73
986.00	54723.29
987.00	54600.02
988.00	54715.48
989.00	54650.73
990.00	54676.47
991.00	54317.59
992.00	54174.04
993.00	53916.58
994.00	53986.80
995.00	54103.82
996.00	54189.64
997.00	54511.86
998.00	54733.43
999.00	54958.12
1000.00	54949.54
1001.00	54887.12
1002.00	54763.07
1003.00	54699.10
1004.00	54635.91
1005.00	54724.07
1006.00	54584.41
1007.00	54479.09
1008.00	54396.39
1009.00	54213.83
1010.00	54170.92
1011.00	54018.00
1012.00	54118.65
1013.00	54041.41
1014.00	54099.14
1015.00	54049.99
1016.00	54195.88
1017.00	54370.64
1018.00	54616.40
1019.00	54748.25
1020.00	54545.40
1021.00	54323.83
1022.00	54017.22
1023.00	53773.03
1024.00	53521.03
1025.00	53511.67
1026.00	53697.35
1027.00	53897.86
1028.00	54103.04
1029.00	54248.16
1030.00	54355.82
1031.00	54457.24
1032.00	54493.13
1033.00	54637.47
1034.00	54545.40
1035.00	54514.98
1036.00	54505.62
1037.00	54553.99
1038.00	54530.58
1039.00	54306.67
1040.00	54055.45
1041.00	53876.79
1042.00	53698.91
1043.00	53587.35
1044.00	53510.89
1045.00	53473.44
1046.00	53240.17
1047.00	53030.30
1048.00	52838.37
1049.00	52831.35
1050.00	52853.20
1051.00	52918.73
1052.00	53077.11
1053.00	53194.92
1054.00	53249.53
1055.00	53142.64
1056.00	52918.73
1057.00	52604.32
1058.00	52062.88
1059.00	51554.20
1060.00	51300.64
1061.00	51393.48
1062.00	51493.35
1063.00	51687.61
1064.00	51727.40
1065.00	51796.84
1066.00	51714.92
1067.00	51796.06
1068.00	51995.78
1069.00	52103.45
1070.00	52337.50
1071.00	52722.13
1072.00	53027.96
1073.00	53244.85
1074.00	53023.28
1075.00	52636.31
1076.00	52072.24
1077.00	51650.16
1078.00	51673.57
1079.00	51750.80
1080.00	51848.33
1081.00	51872.51
1082.00	51970.82
1083.00	52101.11
1084.00	52278.99
1085.00	52276.65
1086.00	52454.53
1087.00	52350.76
1088.00	52151.04
1089.00	51870.17
1090.00	51722.72
1091.00	51647.04
1092.00	51458.24
1093.00	51410.65
1094.00	51586.97
1095.00	51788.25
1096.00	51661.86
1097.00	51569.80
1098.00	51381.78
1099.00	51378.66
1100.00	50922.26
1101.00	50508.76
1102.00	50121.01
1103.00	49943.13
1104.00	49908.02
1105.00	49996.96
1106.00	50289.53
1107.00	50546.21
1108.00	50619.55
1109.00	50807.57
1110.00	50972.97
1111.00	51214.82
1112.00	51275.68
1113.00	51280.36
1114.00	51011.98
1115.00	50769.34
1116.00	50283.29
1117.00	50181.09
1118.00	49675.53
1119.00	49457.86
1120.00	49082.59
1121.00	49066.21
1122.00	49307.29
1123.00	49485.17
1124.00	49644.32
1125.00	49481.27
1126.00	49493.75
1127.00	49465.66
1128.00	49304.95
1129.00	48964.79
1130.00	48631.65
1131.00	48197.09
1132.00	47774.23
1133.00	47254.64
1134.00	47079.88
1135.00	47083.78
1136.00	47345.14
1137.00	47700.90
1138.00	48001.27
1139.00	48500.58
1140.00	48737.76
1141.00	49120.04
1142.00	49170.75
1143.00	49357.22
1144.00	49306.51
1145.00	49293.24
1146.00	49159.05
1147.00	48816.55
1148.00	48719.03
1149.00	48532.57
1150.00	48632.43
1151.00	48591.08
1152.00	48498.24
1153.00	48461.57
1154.00	48133.90
1155.00	47986.44
1156.00	47753.95
1157.00	47503.51
1158.00	47175.84
1159.00	46887.17
1160.00	46839.58
1161.00	46796.67
1162.00	46733.48
1163.00	46663.26
1164.00	46734.26
1165.00	46657.02
1166.00	46660.14
1167.00	46800.57
1168.00	47061.93
1169.00	47278.04
1170.00	47136.83
1171.00	47089.24
1172.00	46786.53
1173.00	46781.07
1174.00	46652.34
1175.00	46602.41
1176.00	46229.48
1177.00	45876.84
1178.00	45505.48
1179.00	45408.73
1180.00	45434.48
1181.00	45571.01
1182.00	45755.13
1183.00	45843.29
1184.00	46112.45
1185.00	46269.27
1186.00	46232.60
1187.00	46151.46
1188.00	46228.70
1189.00	46308.28
1190.00	46351.97
1191.00	46237.28
1192.00	46199.83
1193.00	46109.33
1194.00	46085.93
1195.00	46217.00
1196.00	46241.96
1197.00	46329.34
1198.00	46306.72
1199.00	46376.15
1200.00	46348.85
1201.00	46405.02
1202.00	46550.13
1203.00	46789.65
1204.00	46844.26
1205.00	46809.15
1206.00	46693.69
1207.00	46810.71
1208.00	46675.74
1209.00	46721.77
1210.00	46701.49
1211.00	46763.90
1212.00	46696.81
1213.00	46557.16
1214.00	46399.56
1215.00	46178.77
1216.00	46166.29
1217.00	46257.57
1218.00	46205.30
1219.00	46039.90
1220.00	45957.20
1221.00	45734.85
1222.00	45361.92
1223.00	45094.32
1224.00	44747.14
1225.00	44563.80
1226.00	44194.00
1227.00	44172.93
1228.00	44129.24
1229.00	44250.95
1230.00	44424.93
1231.00	44634.80
1232.00	44751.04
1233.00	44662.10
1234.00	44669.12
1235.00	44606.71
1236.00	44733.10
1237.00	44557.56
1238.00	44399.18
1239.00	44189.31
1240.00	43993.49
1241.00	43619.78
1242.00	42827.90
1243.00	41713.81
1244.00	40463.18
1245.00	39337.38
1246.00	38605.58
1247.00	38036.05
1248.00	37817.60
1249.00	37848.80
1250.00	38261.52
1251.00	38905.16
1252.00	39807.05
1253.00	40808.80
1254.00	41548.41
1255.00	42109.36
1256.00	42420.65
1257.00	42682.79
1258.00	42732.72
1259.00	42404.27
1260.00	42128.86
1261.00	41918.99
1262.00	41979.85
1263.00	41938.50
1264.00	41879.99
1265.00	41988.43
1266.00	42065.67
1267.00	42117.16
1268.00	41974.39
1269.00	42016.52
1270.00	41857.36
1271.00	42007.94
1272.00	42048.50
1273.00	42159.29
1274.00	42235.75
1275.00	42223.26
1276.00	42131.20
1277.00	41677.14
1278.00	41530.47
1279.00	41286.27
1280.00	41014.77
1281.00	40607.51
1282.00	40433.53
1283.00	40409.35
1284.00	40350.06
1285.00	40651.20
1286.00	40866.53
1287.00	41220.73
1288.00	41239.46
1289.00	41457.91
1290.00	41471.17
1291.00	41489.12
1292.00	41515.64
1293.00	41461.81
1294.00	41487.56
1295.00	41415.78
1296.00	41573.38
1297.00	41387.69
1298.00	41362.73
1299.00	40999.16
1300.00	40860.29
1301.00	40766.67
1302.00	40722.20
1303.00	40731.56
1304.00	40584.11
1305.00	40630.14
1306.00	40655.11
1307.00	40546.66
1308.00	40548.22
1309.00	40605.95
1310.00	40830.65
1311.00	40754.97
1312.00	40892.28
1313.00	40817.38
1314.00	40911.00
1315.00	40712.06
1316.00	40615.32
1317.00	40620.78
1318.00	40451.48
1319.00	40365.66
1320.00	40195.58
1321.00	40302.46
1322.00	40402.33
1323.00	40257.21
1324.00	40130.83
1325.00	39847.62
1326.00	39683.78
1327.00	39473.92
1328.00	39372.49
1329.00	39413.84
1330.00	39452.07
1331.00	39513.70
1332.00	39386.53
1333.00	39493.42
1334.00	39673.64
1335.00	40066.07
1336.00	40175.30
1337.00	40366.44
1338.00	40545.10
1339.00	40533.40
1340.00	40399.99
1341.00	40258.77
1342.00	40172.95
1343.00	40231.47
1344.00	40134.73
1345.00	40182.32
1346.00	40034.08
1347.00	39917.06
1348.00	39803.15
1349.00	39675.20
1350.00	39504.34
1351.00	39548.03
1352.00	39562.08
1353.00	39564.42
1354.00	39244.54
1355.00	39057.30
1356.00	38986.30
1357.00	38965.24
1358.00	38937.93
1359.00	38988.64
1360.00	39221.92
1361.00	39306.96
1362.00	39377.95
1363.00	39260.15
1364.00	39192.27
1365.00	39067.44
1366.00	38780.34
1367.00	38511.17
1368.00	38141.37
1369.00	37961.15
1370.00	37876.11
1371.00	37844.90
1372.00	37797.31
1373.00	37744.26
1374.00	37719.29
1375.00	37730.22
1376.00	37821.50
1377.00	37920.58
1378.00	37933.84
1379.00	37700.57
1380.00	37433.75
1381.00	37116.22
1382.00	36936.77
1383.00	37014.01
1384.00	37017.13
1385.00	37195.79
1386.00	37140.40
1387.00	37424.39
1388.00	37444.67
1389.00	37535.95
1390.00	37457.93
1391.00	37194.23
1392.00	37015.57
1393.00	36731.59
1394.00	36565.41
1395.00	36286.89
1396.00	36286.11
1397.00	36334.48
1398.00	36565.41
1399.00	36607.54
1400.00	36602.08
1401.00	36359.44
1402.00	36063.75
1403.00	35792.25
1404.00	35477.06
1405.00	35245.35
1406.00	35269.53
1407.00	35420.11
1408.00	35572.24
1409.00	35764.17
1410.00	35955.31
1411.00	36079.36
1412.00	36066.88
1413.00	35956.87
1414.00	35813.32
1415.00	35619.83
1416.00	35301.52
1417.00	35026.12
1418.00	34543.97
1419.00	34201.47
1420.00	33881.60
1421.00	33690.45
1422.00	33672.51
1423.00	33694.35
1424.00	33792.65
1425.00	33926.85
1426.00	34005.64
1427.00	34197.57
1428.00	34306.79
1429.00	34446.44
1430.00	34641.49
1431.00	34712.49
1432.00	34820.93
1433.00	34924.69
1434.00	34955.12
1435.00	35053.42
1436.00	34902.07
1437.00	34669.58
1438.00	34338.00
1439.00	34181.18
1440.00	34266.22
1441.00	34319.28
1442.00	34479.21
1443.00	34351.26
1444.00	34377.01
1445.00	34231.90
1446.00	34414.46
1447.00	34418.36
1448.00	34493.26
1449.00	34501.84
1450.00	34669.58
1451.00	34602.48
1452.00	34395.73
1453.00	34043.09
1454.00	33649.88
1455.00	33352.63
1456.00	33179.43
1457.00	33216.10
1458.00	33447.04
1459.00	33530.51
1460.00	33498.53
1461.00	33326.11
1462.00	33038.22
1463.00	32843.96
1464.00	32658.27
1465.00	32625.51
1466.00	32694.94
1467.00	32596.64
1468.00	32537.35
1469.00	32406.28
1470.00	32492.10
1471.00	32436.70
1472.00	32252.58
1473.00	31974.06
1474.00	31770.43
1475.00	31665.11
1476.00	31551.20
1477.00	31488.01
1478.00	31542.62
1479.00	31371.76
1480.00	31089.34
1481.00	30791.31
1482.00	30776.48
1483.00	31033.16
1484.00	31118.20
1485.00	31123.66
1486.00	31043.31
1487.00	31077.63
1488.00	31170.47
1489.00	31176.72
1490.00	31257.07
1491.00	31146.29
1492.00	30918.48
1493.00	30427.74
1494.00	29855.09
1495.00	29341.74
1496.00	28807.31
1497.00	28600.57
1498.00	28339.21
1499.00	28460.13
1500.00	28578.72
1501.00	29131.09
1502.00	29409.61
1503.00	29631.96
1504.00	29599.98
1505.00	29592.95
1506.00	29449.40
1507.00	29275.42
1508.00	29012.50
1509.00	28929.80
1510.00	28767.52
1511.00	28645.04
1512.00	28510.85
1513.00	28607.59
1514.00	28810.43
1515.00	28970.37
1516.00	29060.09
1517.00	29220.81
1518.00	29190.38
1519.00	29063.99
1520.00	28878.31
1521.00	28697.31
1522.00	28468.72
1523.00	28258.07
1524.00	28296.30
1525.00	28505.38
1526.00	28772.21
1527.00	29005.48
1528.00	29216.13
1529.00	29205.98
1530.00	29237.97
1531.00	29120.95
1532.00	29090.52
1533.00	28970.37
1534.00	28871.29
1535.00	28757.38
1536.00	28637.23
1537.00	28497.58
1538.00	28520.99
1539.00	28491.34
1540.00	28663.76
1541.00	28668.44
1542.00	28796.39
1543.00	28868.17
1544.00	29006.26
1545.00	29044.49
1546.00	28950.87
1547.00	28762.84
1548.00	28625.53
1549.00	28536.59
1550.00	28400.84
1551.00	28195.65
1552.00	28124.66
1553.00	28045.08
1554.00	28261.19
1555.00	28261.97
1556.00	28430.49
1557.00	28381.34
1558.00	28550.63
1559.00	28677.80
1560.00	28659.08
1561.00	28531.91
1562.00	28587.30
1563.00	28611.49
1564.00	28618.51
1565.00	28415.66
1566.00	28363.39
1567.00	28275.23
1568.00	28233.10
1569.00	28216.72
1570.00	28247.93
1571.00	28192.53
1572.00	28088.77
1573.00	27929.61
1574.00	27769.68
1575.00	27626.90
1576.00	27345.26
1577.00	27211.85
1578.00	27092.48
1579.00	27051.91
1580.00	27127.59
1581.00	27268.02
1582.00	27367.88
1583.00	27240.72
1584.00	27007.44
1585.00	27037.09
1586.00	26950.49
1587.00	26864.67
1588.00	26744.52
1589.00	26760.12
1590.00	26828.78
1591.00	26856.09
1592.00	26842.82
1593.00	26906.80
1594.00	26898.22
1595.00	26845.16
1596.00	26887.29
1597.00	26905.24
1598.00	26879.49
1599.00	26641.54
1600.00	26519.83
1601.00	26514.37
1602.00	26494.86
1603.00	26240.53
1604.00	26249.11
1605.00	26189.03
1606.00	26334.93
1607.00	26286.56
1608.00	26370.04
1609.00	26365.35
1610.00	26374.72
1611.00	26227.26
1612.00	26194.50
1613.00	25990.09
1614.00	25905.05
1615.00	25811.43
1616.00	25799.73
1617.00	25729.51
1618.00	25548.51
1619.00	25365.17
1620.00	25270.76
1621.00	25249.70
1622.00	25258.28
1623.00	25206.79
1624.00	25225.51
1625.00	25049.97
1626.00	25058.56
1627.00	24776.91
1628.00	24641.94
1629.00	24578.75
1630.00	24598.25
1631.00	24631.80
1632.00	24515.55
1633.00	24457.82
1634.00	24442.21
1635.00	24459.38
1636.00	24410.23
1637.00	24425.05
1638.00	24318.17
1639.00	24284.62
1640.00	23967.09
1641.00	23701.04
1642.00	23397.56
1643.00	23282.09
1644.00	23208.75
1645.00	23308.62
1646.00	23669.84
1647.00	24034.18
1648.00	24480.44
1649.00	24623.22
1650.00	24816.70
1651.00	24725.42
1652.00	24707.48
1653.00	24678.61
1654.00	24537.40
1655.00	24350.15
1656.00	23915.59
1657.00	23726.79
1658.00	23594.94
1659.00	23560.61
1660.00	23635.51
1661.00	23689.34
1662.00	23919.49
1663.00	24064.61
1664.00	24171.49
1665.00	24216.74
1666.00	24137.94
1667.00	24159.01
1668.00	24053.69
1669.00	23977.23
1670.00	23839.92
1671.00	23800.13
1672.00	23896.87
1673.00	23981.91
1674.00	23939.78
1675.00	23778.28
1676.00	23568.41
1677.00	23387.41
1678.00	23204.07
1679.00	23042.57
1680.00	22903.70
1681.00	22811.64
1682.00	22690.71
1683.00	22387.22
1684.00	22022.88
1685.00	21549.31
1686.00	21021.91
1687.00	20162.15
1688.00	19224.38
1689.00	18554.99
1690.00	18325.61
1691.00	18452.78
1692.00	18894.36
1693.00	19467.80
1694.00	20193.36
1695.00	20795.66
1696.00	21230.22
1697.00	21528.25
1698.00	21852.80
1699.00	22216.36
1700.00	22444.18
1701.00	22469.14
1702.00	22542.48
1703.00	22615.82
1704.00	22641.56
1705.00	22561.98
1706.00	22558.08
1707.00	22579.93
1708.00	22496.45
1709.00	22414.53
1710.00	22129.77
1711.00	22171.11
1712.00	22082.95
1713.00	22175.80
1714.00	22316.23
1715.00	22345.87
1716.00	22530.00
1717.00	22338.85
1718.00	22423.11
1719.00	22300.62
1720.00	22373.18
1721.00	22157.85
1722.00	22080.61
1723.00	22055.65
1724.00	22159.41
1725.00	22309.21
1726.00	22256.93
1727.00	22324.03
1728.00	22286.58
1729.00	22225.73
1730.00	22217.15
1731.00	22143.03
1732.00	22175.80
1733.00	21979.19
1734.00	21913.66
1735.00	21747.48
1736.00	21691.30
1737.00	21430.73
1738.00	21280.15
1739.00	21252.84
1740.00	21284.05
1741.00	21290.29
1742.00	21191.99
1743.00	21202.13
1744.00	21131.14
1745.00	21039.08
1746.00	20987.58
1747.00	20942.33
1748.00	21018.79
1749.00	21035.95
1750.00	21033.61
1751.00	20941.55
1752.00	21000.85
1753.00	21061.70
1754.00	21054.68
1755.00	20901.76
1756.00	20847.93
1757.00	20780.06
1758.00	20624.80
1759.00	20493.73
1760.00	20475.01
1761.00	20520.26
1762.00	20524.94
1763.00	20413.37
1764.00	20362.66
1765.00	20388.41
1766.00	20373.58
1767.00	20325.21
1768.00	20199.60
1769.00	20128.61
1770.00	20133.29
1771.00	20069.31
1772.00	20148.89
1773.00	20025.62
1774.00	20047.47
1775.00	20059.17
1776.00	20148.11
1777.00	20102.08
1778.00	19992.08
1779.00	19952.29
1780.00	19895.33
1781.00	19740.08
1782.00	19552.84
1783.00	19473.26
1784.00	19476.38
1785.00	19488.86
1786.00	19432.69
1787.00	19239.20
1788.00	19171.33
1789.00	19215.80
1790.00	19406.16
1791.00	19317.22
1792.00	19137.00
1793.00	18979.40
1794.00	18932.59
1795.00	18893.58
1796.00	18852.24
1797.00	18814.79
1798.00	18691.52
1799.00	18551.09
1800.00	18419.24
1801.00	18331.86
1802.00	18335.76
1803.00	18298.31
1804.00	18446.54
1805.00	18356.82
1806.00	18448.88
1807.00	18325.61
1808.00	18236.67
1809.00	18099.36
1810.00	18068.94
1811.00	18107.16
1812.00	18063.47
1813.00	18003.40
1814.00	17946.45
1815.00	17885.59
1816.00	17838.78
1817.00	17833.32
1818.00	17845.80
1819.00	17748.28
1820.00	17774.81
1821.00	17533.73
1822.00	17539.19
1823.00	17408.12
1824.00	17632.04
1825.00	17593.81
1826.00	17550.12
1827.00	17378.48
1828.00	17414.37
1829.00	17503.31
1830.00	17337.91
1831.00	17252.09
1832.00	17072.65
1833.00	17100.73
1834.00	16933.00
1835.00	16864.34
1836.00	16723.91
1837.00	16850.30
1838.00	16886.18
1839.00	16958.74
1840.00	16733.27
1841.00	16560.85
1842.00	16556.95
1843.00	16501.56
1844.00	16482.83
1845.00	16432.12
1846.00	16469.57
1847.00	16340.84
1848.00	16248.78
1849.00	16066.22
1850.00	16106.79
1851.00	15972.60
1852.00	16080.26
1853.00	15900.04
1854.00	15849.33
1855.00	15727.62
1856.00	15789.25
1857.00	15772.87
1858.00	15754.93
1859.00	15720.60
1860.00	15722.16
1861.00	15614.49
1862.00	15497.47
1863.00	15503.71
1864.00	15347.67
1865.00	15278.24
1866.00	15192.42
1867.00	15340.65
1868.00	15393.70
1869.00	15276.68
1870.00	15100.36
1871.00	15019.22
1872.00	15020.00
1873.00	14968.51
1874.00	14915.45
1875.00	14822.61
1876.00	14776.58
1877.00	14636.15
1878.00	14594.02
1879.00	14615.09
1880.00	14637.71
1881.00	14584.66
1882.00	14540.97
1883.00	14465.29
1884.00	14279.61
1885.00	14127.47
1886.00	13994.84
1887.00	13900.44
1888.00	13857.53
1889.00	13852.85
1890.00	13941.79
1891.00	13806.82
1892.00	13800.58
1893.00	13829.45
1894.00	13873.14
1895.00	13748.31
1896.00	13638.30
1897.00	13563.40
1898.00	13531.42
1899.00	13476.02
1900.00	13383.96
1901.00	13367.58
1902.00	13247.43
1903.00	13142.11
1904.00	12679.46
1905.00	12017.09
1906.00	11068.39
1907.00	10096.29
1908.00	9259.94
1909.00	8680.27
1910.00	8311.24
1911.00	8065.49
1912.00	8010.09
1913.00	8278.47
1914.00	8730.20
1915.00	9282.56
1916.00	9681.24
1917.00	10042.46
1918.00	10257.79
1919.00	10296.02
1920.00	10263.25
1921.00	10079.13
1922.00	10019.05
1923.00	9821.67
1924.00	9751.45
1925.00	9683.58
1926.00	9712.44
1927.00	9714.00
1928.00	9753.01
1929.00	9834.93
1930.00	9843.51
1931.00	9976.14
1932.00	10029.98
1933.00	10185.23
1934.00	10109.55
1935.00	10197.71
1936.00	10307.72
1937.00	10391.98
1938.00	10384.96
1939.00	10379.50
1940.00	10428.65
1941.00	10401.34
1942.00	10320.98
1943.00	10320.98
1944.00	10338.15
1945.00	10345.95
1946.00	10250.77
1947.00	10267.93
1948.00	10272.61
1949.00	10310.06
1950.00	10239.06
1951.00	10196.93
1952.00	10154.80
1953.00	10152.46
1954.00	10103.31
1955.00	10089.27
1956.00	9981.60
1957.00	9887.98
1958.00	9775.64
1959.00	9763.93
1960.00	9693.72
1961.00	9604.78
1962.00	9457.32
1963.00	9428.46
1964.00	9362.14
1965.00	9441.72
1966.00	9419.10
1967.00	9433.92
1968.00	9358.24
1969.00	9344.20
1970.00	9327.03
1971.00	9309.87
1972.00	9259.94
1973.00	9217.03
1974.00	9179.58
1975.00	9138.23
1976.00	9233.41
1977.00	9343.42
1978.00	9400.37
1979.00	9333.28
1980.00	9257.60
1981.00	9297.39
1982.00	9387.11
1983.00	9390.23
1984.00	9403.49
1985.00	9372.29
1986.00	9286.47
1987.00	9216.25
1988.00	9105.46
1989.00	9078.16
1990.00	8895.60
1991.00	8731.76
1992.00	8677.93
1993.00	8627.99
1994.00	8559.34
1995.00	8402.52
1996.00	8347.13
1997.00	8351.81
1998.00	8340.89
1999.00	8326.07
2000.00	8282.38
2001.00	8237.13
2002.00	8136.48
2003.00	8049.88
2004.00	8049.88
2005.00	8107.62
2006.00	8053.00
2007.00	7982.79
2008.00	7924.27
2009.00	7928.95
2010.00	7873.56
2011.00	7838.45
2012.00	7870.44
2013.00	7818.17
2014.00	7775.26
2015.00	7663.69
2016.00	7691.00
2017.00	7590.36
2018.00	7568.51
2019.00	7449.93
2020.00	7468.65
2021.00	7441.34
2022.00	7419.50
2023.00	7356.30
2024.00	7269.70
2025.00	7211.19
2026.00	7186.22
2027.00	7213.53
2028.00	7277.51
2029.00	7265.80
2030.00	7304.03
2031.00	7274.38
2032.00	7298.57
2033.00	7285.31
2034.00	7250.98
2035.00	7183.88
2036.00	7100.41
2037.00	7125.37
2038.00	7130.05
2039.00	7110.55
2040.00	7003.66
2041.00	7018.49
2042.00	7007.56
2043.00	6998.98
2044.00	6895.22
2045.00	6839.83
2046.00	6829.68
2047.00	6829.68
>>>>>End Processed Spectral Data<<<<<
