SpectraSuite Data File
++++++++++++++++++++++++++++++++++++
Date: Thu Nov 16 13:32:51 EST 2017
User: cheriyan
Dark Spectrum Present: No
Reference Spectrum Present: No
Number of Sampled Component Spectra: 1
Spectrometers: USB2+H05261
Integration Time (usec): 90000 (USB2+H05261)
Spectra Averaged: 1 (USB2+H05261)
Boxcar Smoothing: 1 (USB2+H05261)
Correct for Electrical Dark: No (USB2+H05261)
Strobe/Lamp Enabled: No (USB2+H05261)
Correct for Detector Non-linearity: No (USB2+H05261)
Correct for Stray Light: No (USB2+H05261)
Number of Pixels in Processed Spectrum: 2048
>>>>>Begin Processed Spectral Data<<<<<
0.00	376.83
1.00	376.83
2.00	340.16
3.00	323.77
4.00	285.55
5.00	293.35
6.00	243.42
7.00	247.32
8.00	221.57
9.00	246.54
10.00	235.61
11.00	262.14
12.00	262.92
13.00	269.16
14.00	260.58
15.00	255.90
16.00	269.16
17.00	259.02
18.00	276.18
19.00	283.98
20.00	275.40
21.00	289.45
22.00	299.59
23.00	795.00
24.00	2464.58
25.00	4236.37
26.00	5586.86
27.00	5743.67
28.00	5617.29
29.00	5412.10
30.00	5152.30
31.00	5061.80
32.00	5076.62
33.00	5124.21
34.00	5157.76
35.00	5023.57
36.00	4826.96
37.00	4642.84
38.00	4642.06
39.00	4690.43
40.00	4779.37
41.00	4812.14
42.00	4806.68
43.00	4791.86
44.00	4889.38
45.00	5114.85
46.00	5433.16
47.00	5650.83
48.00	5813.11
49.00	5802.97
50.00	5820.13
51.00	5772.54
52.00	5823.25
53.00	5859.92
54.00	6005.03
55.00	6227.39
56.00	6485.62
57.00	6829.68
58.00	7054.37
59.00	7297.01
60.00	7378.93
61.00	7396.87
62.00	7221.33
63.00	6965.43
64.00	6674.43
65.00	6400.58
66.00	6191.50
67.00	6023.76
68.00	5963.68
69.00	5988.65
70.00	6149.37
71.00	6360.80
72.00	6602.65
73.00	6864.01
74.00	7030.97
75.00	7035.65
76.00	6800.04
77.00	6511.37
78.00	6203.20
79.00	5923.12
80.00	5600.12
81.00	5341.10
82.00	5132.01
83.00	4934.63
84.00	4719.30
85.00	4578.09
86.00	4544.54
87.00	4514.11
88.00	4507.87
89.00	4552.34
90.00	4816.82
91.00	5226.42
92.00	5716.37
93.00	6130.64
94.00	6383.42
95.00	6570.66
96.00	6573.00
97.00	6496.55
98.00	6313.99
99.00	6154.83
100.00	6129.86
101.00	6153.27
102.00	6310.86
103.00	6452.86
104.00	6565.98
105.00	6539.46
106.00	6519.95
107.00	6490.31
108.00	6517.61
109.00	6542.58
110.00	6566.76
111.00	6582.37
112.00	6536.34
113.00	6541.02
114.00	6598.75
115.00	6723.58
116.00	7009.90
117.00	7462.41
118.00	7860.30
119.00	8164.57
120.00	8317.48
121.00	8486.00
122.00	8548.42
123.00	8555.44
124.00	8645.16
125.00	8868.29
126.00	9176.46
127.00	9435.48
128.00	9565.77
129.00	9551.73
130.00	9336.40
131.00	9057.09
132.00	8639.70
133.00	8209.82
134.00	7573.97
135.00	6926.43
136.00	6148.59
137.00	5486.22
138.00	4854.27
139.00	4642.06
140.00	4827.74
141.00	5450.33
142.00	6213.34
143.00	6953.73
144.00	7723.77
145.00	8412.67
146.00	9010.28
147.00	9521.30
148.00	9802.16
149.00	10044.02
150.00	10051.04
151.00	9806.84
152.00	9271.64
153.00	8457.92
154.00	7672.28
155.00	6818.76
156.00	6179.79
157.00	5878.65
158.00	6108.02
159.00	6890.54
160.00	7951.58
161.00	9187.38
162.00	10207.86
163.00	11062.93
164.00	11579.41
165.00	12047.52
166.00	12453.21
167.00	12902.59
168.00	13219.35
169.00	13440.14
170.00	13548.58
171.00	13650.00
172.00	13704.62
173.00	13816.96
174.00	13907.46
175.00	14094.71
176.00	14196.13
177.00	14355.29
178.00	14550.33
179.00	14807.79
180.00	15065.25
181.00	15197.10
182.00	15318.03
183.00	15335.19
184.00	15309.44
185.00	15354.69
186.00	15342.21
187.00	15398.38
188.00	15191.64
189.00	15062.91
190.00	14869.42
191.00	14982.55
192.00	15208.80
193.00	15526.33
194.00	15627.76
195.00	15460.80
196.00	15204.12
197.00	14949.78
198.00	15058.23
199.00	15165.89
200.00	15372.64
201.00	15406.19
202.00	15359.38
203.00	15310.22
204.00	15185.40
205.00	15140.15
206.00	14859.28
207.00	14748.50
208.00	14840.56
209.00	15192.42
210.00	15405.41
211.00	15445.20
212.00	15407.75
213.00	15503.71
214.00	15690.95
215.00	16052.95
216.00	16396.23
217.00	16814.41
218.00	17067.97
219.00	17276.27
220.00	17290.32
221.00	17269.25
222.00	16944.70
223.00	16392.33
224.00	15833.72
225.00	15392.14
226.00	15232.99
227.00	15266.53
228.00	15676.91
229.00	16210.55
230.00	16714.55
231.00	17329.33
232.00	17879.35
233.00	18310.01
234.00	18333.42
235.00	18371.64
236.00	18567.47
237.00	18621.30
238.00	18628.32
239.00	18466.83
240.00	18335.76
241.00	18148.51
242.00	18092.34
243.00	18267.10
244.00	18544.06
245.00	18802.30
246.00	18971.60
247.00	18979.40
248.00	18868.62
249.00	18860.82
250.00	18991.89
251.00	19108.13
252.00	19112.03
253.00	19067.56
254.00	19172.89
255.00	19491.20
256.00	19846.96
257.00	20162.94
258.00	20340.82
259.00	20477.35
260.00	20478.13
261.00	20314.29
262.00	19969.45
263.00	19696.39
264.00	19518.51
265.00	19399.14
266.00	19427.23
267.00	19491.20
268.00	19760.36
269.00	19724.47
270.00	19797.03
271.00	19843.06
272.00	20208.97
273.00	20474.23
274.00	20523.38
275.00	20272.16
276.00	19983.49
277.00	19690.93
278.00	19626.17
279.00	19736.18
280.00	20219.89
281.00	20816.72
282.00	21326.18
283.00	21622.65
284.00	21722.51
285.00	21748.26
286.00	21795.85
287.00	21534.49
288.00	21196.67
289.00	20674.73
290.00	20095.06
291.00	19547.37
292.00	19291.48
293.00	19571.56
294.00	19985.83
295.00	20263.58
296.00	20448.48
297.00	20453.94
298.00	20549.12
299.00	20647.43
300.00	20840.91
301.00	20719.98
302.00	20598.27
303.00	20441.46
304.00	20366.56
305.00	20305.71
306.00	20153.57
307.00	20131.73
308.00	19977.25
309.00	19952.29
310.00	20122.37
311.00	20375.14
312.00	20344.72
313.00	20122.37
314.00	19573.12
315.00	19135.44
316.00	18799.18
317.00	18831.95
318.00	19208.00
319.00	19466.24
320.00	19839.94
321.00	19928.10
322.00	19878.17
323.00	19593.40
324.00	19341.41
325.00	19250.91
326.00	19163.53
327.00	19021.53
328.00	18458.24
329.00	17687.43
330.00	16720.01
331.00	15843.09
332.00	15189.30
333.00	14650.97
334.00	14561.25
335.00	14717.29
336.00	15374.98
337.00	16515.60
338.00	18175.82
339.00	20132.51
340.00	21687.40
341.00	22327.15
342.00	22004.16
343.00	21355.83
344.00	20815.94
345.00	20834.67
346.00	21305.90
347.00	21971.39
348.00	22432.47
349.00	22317.79
350.00	21522.79
351.00	20528.84
352.00	19701.07
353.00	19678.44
354.00	20149.67
355.00	20871.34
356.00	21492.36
357.00	21889.47
358.00	22153.95
359.00	22436.38
360.00	22662.63
361.00	23183.79
362.00	23496.64
363.00	23953.82
364.00	24105.96
365.00	24218.30
366.00	24202.70
367.00	24110.64
368.00	23786.08
369.00	23325.00
370.00	23122.93
371.00	22953.63
372.00	22779.65
373.00	22185.94
374.00	21606.27
375.00	21074.18
376.00	20864.32
377.00	21063.26
378.00	21456.47
379.00	22139.13
380.00	22764.83
381.00	23490.40
382.00	23985.03
383.00	24258.09
384.00	24231.57
385.00	23811.05
386.00	23655.01
387.00	23744.73
388.00	24261.99
389.00	24932.95
390.00	25692.06
391.00	26212.44
392.00	26439.47
393.00	26607.99
394.00	26942.69
395.00	27113.55
396.00	27260.22
397.00	27386.61
398.00	27740.03
399.00	27968.62
400.00	27758.75
401.00	27669.81
402.00	27470.87
403.00	27864.08
404.00	28046.64
405.00	28337.65
406.00	28315.02
407.00	28171.47
408.00	27740.81
409.00	27552.01
410.00	27722.87
411.00	28037.28
412.00	27715.84
413.00	27040.21
414.00	26355.99
415.00	25890.23
416.00	25777.10
417.00	25804.41
418.00	26309.18
419.00	26723.46
420.00	27197.81
421.00	27754.85
422.00	28090.33
423.00	28410.98
424.00	28528.01
425.00	28774.55
426.00	28755.82
427.00	28614.61
428.00	28348.57
429.00	28421.13
430.00	28452.33
431.00	28519.43
432.00	28425.03
433.00	28393.04
434.00	28525.67
435.00	28744.90
436.00	28951.65
437.00	29088.96
438.00	29237.97
439.00	29599.98
440.00	30206.17
441.00	30706.27
442.00	30971.53
443.00	30803.79
444.00	30715.63
445.00	30533.85
446.00	30401.22
447.00	30208.51
448.00	29965.88
449.00	29681.11
450.00	29447.06
451.00	29152.15
452.00	28783.13
453.00	28186.29
454.00	27767.34
455.00	27573.85
456.00	27814.93
457.00	28329.84
458.00	28847.88
459.00	29326.91
460.00	29601.54
461.00	29760.69
462.00	29699.06
463.00	29401.81
464.00	29109.24
465.00	28927.46
466.00	29103.00
467.00	29554.72
468.00	29847.29
469.00	30180.43
470.00	30521.37
471.00	30954.36
472.00	31079.97
473.00	30985.57
474.00	31030.82
475.00	31101.82
476.00	31363.96
477.00	31651.84
478.00	31991.22
479.00	32097.33
480.00	31615.96
481.00	31226.65
482.00	30617.33
483.00	30284.97
484.00	30285.75
485.00	30628.25
486.00	31088.56
487.00	30997.27
488.00	31008.98
489.00	31005.86
490.00	30959.05
491.00	30894.29
492.00	30749.96
493.00	30913.02
494.00	30811.59
495.00	31069.05
496.00	31477.08
497.00	32070.80
498.00	32318.90
499.00	32355.57
500.00	32207.33
501.00	32172.22
502.00	32282.23
503.00	32483.52
504.00	32867.36
505.00	32852.54
506.00	32850.98
507.00	32874.38
508.00	33043.68
509.00	33135.74
510.00	32997.65
511.00	32762.82
512.00	32626.29
513.00	32350.10
514.00	32325.92
515.00	32231.52
516.00	32102.01
517.00	31809.44
518.00	31547.30
519.00	31318.71
520.00	31570.71
521.00	31603.47
522.00	31887.46
523.00	31999.02
524.00	32404.72
525.00	32631.75
526.00	32350.10
527.00	31850.01
528.00	31130.69
529.00	30648.54
530.00	30508.10
531.00	30740.60
532.00	31079.19
533.00	31461.48
534.00	31697.88
535.00	32029.45
536.00	31630.00
537.00	31406.87
538.00	31296.86
539.00	31654.19
540.00	31993.56
541.00	32008.39
542.00	32011.51
543.00	32096.55
544.00	32167.54
545.00	32086.40
546.00	31585.53
547.00	31167.35
548.00	31028.48
549.00	31079.19
550.00	31104.94
551.00	31181.40
552.00	31263.32
553.00	31480.99
554.00	31627.66
555.00	32160.52
556.00	32595.86
557.00	33208.30
558.00	33638.18
559.00	34115.65
560.00	34295.87
561.00	34204.59
562.00	33749.74
563.00	33263.69
564.00	32853.32
565.00	33098.30
566.00	33588.25
567.00	33731.02
568.00	33653.78
569.00	33432.21
570.00	33874.57
571.00	34419.92
572.00	34925.47
573.00	35092.43
574.00	34955.90
575.00	34964.48
576.00	35080.73
577.00	34946.54
578.00	34913.77
579.00	34650.85
580.00	34624.33
581.00	34491.69
582.00	34584.54
583.00	34729.65
584.00	34895.05
585.00	35225.84
586.00	35696.29
587.00	35888.99
588.00	35973.25
589.00	36428.88
590.00	37114.66
591.00	37784.05
592.00	38087.54
593.00	38252.94
594.00	38104.70
595.00	37848.02
596.00	37760.64
597.00	38067.25
598.00	38748.35
599.00	39319.44
600.00	39740.74
601.00	39638.53
602.00	39600.30
603.00	39518.39
604.00	39792.23
605.00	40368.78
606.00	40622.34
607.00	40755.75
608.00	40711.28
609.00	41248.82
610.00	41482.09
611.00	41649.05
612.00	41718.49
613.00	42185.82
614.00	42389.44
615.00	42413.63
616.00	42297.38
617.00	42405.05
618.00	42665.63
619.00	42696.83
620.00	42870.81
621.00	42946.49
622.00	43406.02
623.00	43755.53
624.00	43796.10
625.00	43501.20
626.00	43272.60
627.00	43313.17
628.00	43657.23
629.00	44156.55
630.00	44595.01
631.00	44431.95
632.00	43440.34
633.00	42547.82
634.00	41289.39
635.00	39812.51
636.00	37977.53
637.00	37159.13
638.00	37482.90
639.00	38639.12
640.00	39881.95
641.00	41099.03
642.00	41971.27
643.00	42779.53
644.00	43640.07
645.00	44476.42
646.00	45404.83
647.00	46067.20
648.00	46632.05
649.00	47028.38
650.00	46784.19
651.00	46537.65
652.00	45781.66
653.00	45954.08
654.00	46412.82
655.00	47693.88
656.00	48680.80
657.00	49575.67
658.00	49955.61
659.00	50373.01
660.00	50467.41
661.00	50535.29
662.00	50329.32
663.00	50142.86
664.00	50001.64
665.00	49940.01
666.00	50021.93
667.00	49856.53
668.00	49368.14
669.00	48704.21
670.00	48259.51
671.00	48227.52
672.00	48711.23
673.00	49680.99
674.00	50820.05
675.00	51517.53
676.00	51827.26
677.00	51707.12
678.00	51494.91
679.00	51094.67
680.00	51077.51
681.00	51284.26
682.00	51894.36
683.00	52490.41
684.00	53148.10
685.00	53575.64
686.00	53735.58
687.00	53734.80
688.00	53542.88
689.00	53155.91
690.00	52809.51
691.00	52526.30
692.00	52697.16
693.00	52986.61
694.00	53515.57
695.00	53876.79
696.00	54092.12
697.00	54170.14
698.00	54343.34
699.00	54362.06
700.00	54557.11
701.00	54561.01
702.00	54450.22
703.00	54087.44
704.00	53492.16
705.00	53135.62
706.00	52910.93
707.00	53093.49
708.00	53499.19
709.00	53879.91
710.00	54323.83
711.00	54683.50
712.00	54913.65
713.00	54865.28
714.00	54664.77
715.00	54360.50
716.00	53967.29
717.00	53656.78
718.00	53283.86
719.00	53206.62
720.00	53045.90
721.00	53133.28
722.00	53032.64
723.00	52942.92
724.00	52790.78
725.00	52708.08
726.00	52843.84
727.00	53249.53
728.00	53628.69
729.00	53866.65
730.00	54017.22
731.00	54202.13
732.00	54426.04
733.00	54509.52
734.00	54551.65
735.00	54320.71
736.00	53851.05
737.00	53269.03
738.00	52970.22
739.00	53127.82
740.00	53535.07
741.00	54063.25
742.00	54323.05
743.00	54458.02
744.00	54559.45
745.00	54859.04
746.00	55221.04
747.00	55663.40
748.00	55979.37
749.00	56299.25
750.00	56199.38
751.00	55945.05
752.00	55656.38
753.00	55397.36
754.00	55321.68
755.00	55249.91
756.00	55311.54
757.00	55139.90
758.00	54922.23
759.00	54555.55
760.00	54241.14
761.00	54096.80
762.00	54208.37
763.00	54639.03
764.00	55093.87
765.00	55524.53
766.00	55925.54
767.00	56230.59
768.00	56231.37
769.00	56143.99
770.00	55888.87
771.00	55752.34
772.00	55610.35
773.00	55576.02
774.00	55687.59
775.00	55635.31
776.00	55636.87
777.00	55641.56
778.00	55739.08
779.00	56048.03
780.00	56358.54
781.00	56713.52
782.00	56781.40
783.00	56747.07
784.00	56527.06
785.00	56220.45
786.00	55848.30
787.00	55530.77
788.00	55439.49
789.00	55508.93
790.00	55574.46
791.00	55582.26
792.00	55494.10
793.00	55397.36
794.00	55226.50
795.00	55073.59
796.00	55086.07
797.00	55121.18
798.00	55246.01
799.00	55337.29
800.00	55431.69
801.00	55596.31
802.00	55743.76
803.00	55863.13
804.00	55978.59
805.00	56094.06
806.00	56140.87
807.00	55760.92
808.00	55114.94
809.00	53993.04
810.00	52757.24
811.00	51262.41
812.00	50139.74
813.00	49596.73
814.00	50084.34
815.00	51369.30
816.00	52809.51
817.00	53880.69
818.00	53855.73
819.00	53413.37
820.00	52563.75
821.00	52480.27
822.00	52580.92
823.00	53265.91
824.00	53726.22
825.00	54264.54
826.00	54560.23
827.00	55007.27
828.00	55334.17
829.00	55693.05
830.00	55900.57
831.00	55905.26
832.00	55853.76
833.00	55612.69
834.00	55551.84
835.00	55574.46
836.00	55817.88
837.00	56013.70
838.00	56151.79
839.00	56188.46
840.00	56369.46
841.00	56518.48
842.00	56627.70
843.00	56423.29
844.00	55939.58
845.00	55399.70
846.00	55131.32
847.00	55017.41
848.00	55104.79
849.00	55324.02
850.00	55746.10
851.00	56281.30
852.00	56608.98
853.00	56967.08
854.00	57085.67
855.00	57139.50
856.00	57056.80
857.00	56913.25
858.00	56903.10
859.00	56762.67
860.00	56733.03
861.00	56567.63
862.00	56686.21
863.00	56755.65
864.00	56668.27
865.00	56106.54
866.00	55305.30
867.00	54282.48
868.00	53298.68
869.00	52661.27
870.00	52484.17
871.00	52804.83
872.00	53222.22
873.00	53886.93
874.00	54611.72
875.00	55222.60
876.00	55622.05
877.00	55589.28
878.00	55767.16
879.00	56000.44
880.00	56384.29
881.00	56707.28
882.00	56942.11
883.00	57237.02
884.00	57161.34
885.00	56801.68
886.00	56339.04
887.00	55967.67
888.00	55941.92
889.00	55944.26
890.00	56179.88
891.00	56360.10
892.00	56694.80
893.00	56883.60
894.00	57051.34
895.00	57052.90
896.00	56947.57
897.00	56732.25
898.00	56495.07
899.00	56308.61
900.00	56107.32
901.00	55798.37
902.00	55270.19
903.00	54624.98
904.00	54097.58
905.00	54028.93
906.00	54251.28
907.00	54781.80
908.00	55148.48
909.00	55671.98
910.00	55798.37
911.00	55864.69
912.00	55623.61
913.00	55489.42
914.00	55310.76
915.00	55352.11
916.00	55446.51
917.00	55640.78
918.00	55913.06
919.00	56097.96
920.00	56359.32
921.00	56590.25
922.00	56702.60
923.00	56692.46
924.00	56378.82
925.00	56026.18
926.00	55573.68
927.00	55144.58
928.00	54720.94
929.00	54482.21
930.00	54458.02
931.00	54744.35
932.00	55114.15
933.00	55370.83
934.00	55533.11
935.00	55565.10
936.00	55625.95
937.00	55677.44
938.00	55532.33
939.00	55418.42
940.00	55267.85
941.00	55205.44
942.00	54953.44
943.00	54661.65
944.00	54390.93
945.00	54297.31
946.00	54236.45
947.00	54026.59
948.00	53881.47
949.00	53543.66
950.00	53485.92
951.00	53290.88
952.00	53286.98
953.00	53250.31
954.00	53537.41
955.00	53924.38
956.00	54252.06
957.00	54342.56
958.00	54475.97
959.00	54675.69
960.00	54619.52
961.00	54232.55
962.00	54054.67
963.00	54067.94
964.00	54252.84
965.00	54191.98
966.00	54125.67
967.00	54170.92
968.00	54371.42
969.00	54605.48
970.00	54998.69
971.00	55249.91
972.00	55289.70
973.00	54918.33
974.00	54624.98
975.00	54549.31
976.00	54624.98
977.00	54543.84
978.00	54426.82
979.00	54303.55
980.00	54220.07
981.00	54438.52
982.00	54524.34
983.00	54553.21
984.00	54319.93
985.00	54170.92
986.00	54204.47
987.00	54177.94
988.00	54278.58
989.00	54027.37
990.00	54039.85
991.00	53652.10
992.00	53559.26
993.00	53084.91
994.00	53219.10
995.00	53427.41
996.00	53795.65
997.00	54064.03
998.00	54227.87
999.00	54323.05
1000.00	54294.97
1001.00	54241.92
1002.00	54279.36
1003.00	54216.17
1004.00	54167.02
1005.00	54015.66
1006.00	54049.99
1007.00	53989.92
1008.00	53948.57
1009.00	53748.06
1010.00	53583.44
1011.00	53556.14
1012.00	53530.39
1013.00	53452.37
1014.00	53398.54
1015.00	53391.52
1016.00	53558.48
1017.00	53872.11
1018.00	54103.04
1019.00	54313.69
1020.00	54071.06
1021.00	53844.02
1022.00	53448.47
1023.00	53169.95
1024.00	52962.42
1025.00	52991.29
1026.00	53255.77
1027.00	53429.75
1028.00	53554.58
1029.00	53483.58
1030.00	53554.58
1031.00	53738.70
1032.00	53931.40
1033.00	54078.86
1034.00	53989.92
1035.00	53944.67
1036.00	54000.84
1037.00	54047.65
1038.00	54040.63
1039.00	53879.91
1040.00	53708.27
1041.00	53493.72
1042.00	53308.82
1043.00	53244.07
1044.00	53141.08
1045.00	52973.34
1046.00	52731.49
1047.00	52543.47
1048.00	52342.96
1049.00	52165.08
1050.00	52186.14
1051.00	52267.28
1052.00	52510.70
1053.00	52691.70
1054.00	52751.77
1055.00	52682.34
1056.00	52409.28
1057.00	52152.60
1058.00	51576.83
1059.00	50965.17
1060.00	50715.51
1061.00	50752.18
1062.00	50987.79
1063.00	50984.67
1064.00	51013.54
1065.00	51015.88
1066.00	51049.42
1067.00	51225.74
1068.00	51395.04
1069.00	51582.29
1070.00	51737.54
1071.00	52104.23
1072.00	52406.94
1073.00	52528.64
1074.00	52359.34
1075.00	51919.32
1076.00	51415.33
1077.00	51056.45
1078.00	51086.87
1079.00	51178.93
1080.00	51241.35
1081.00	51237.45
1082.00	51355.25
1083.00	51505.05
1084.00	51727.40
1085.00	51807.76
1086.00	51855.35
1087.00	51792.93
1088.00	51624.42
1089.00	51461.36
1090.00	51095.45
1091.00	50991.69
1092.00	50754.52
1093.00	50795.87
1094.00	50951.12
1095.00	51131.34
1096.00	51242.91
1097.00	51077.51
1098.00	50839.56
1099.00	50512.66
1100.00	50151.44
1101.00	49664.61
1102.00	49393.89
1103.00	49231.61
1104.00	49329.13
1105.00	49475.80
1106.00	49570.21
1107.00	49791.00
1108.00	49965.76
1109.00	50213.85
1110.00	50503.30
1111.00	50479.89
1112.00	50571.96
1113.00	50491.60
1114.00	50471.31
1115.00	50194.35
1116.00	49714.54
1117.00	49297.14
1118.00	48810.31
1119.00	48523.99
1120.00	48384.33
1121.00	48332.06
1122.00	48535.69
1123.00	48552.85
1124.00	48736.98
1125.00	48682.36
1126.00	48633.21
1127.00	48653.50
1128.00	48470.93
1129.00	48299.30
1130.00	47970.06
1131.00	47636.14
1132.00	47256.98
1133.00	46725.67
1134.00	46502.54
1135.00	46290.34
1136.00	46596.95
1137.00	46935.54
1138.00	47588.55
1139.00	48009.85
1140.00	48235.32
1141.00	48364.83
1142.00	48370.29
1143.00	48322.70
1144.00	48290.71
1145.00	48234.54
1146.00	48276.67
1147.00	48115.95
1148.00	48082.41
1149.00	47885.02
1150.00	47888.14
1151.00	47838.99
1152.00	47925.59
1153.00	47860.83
1154.00	47679.05
1155.00	47427.06
1156.00	47273.36
1157.00	47005.76
1158.00	46807.59
1159.00	46442.47
1160.00	46324.66
1161.00	46183.45
1162.00	46065.64
1163.00	45823.01
1164.00	45664.63
1165.00	45695.06
1166.00	45758.25
1167.00	45973.58
1168.00	46176.43
1169.00	46401.12
1170.00	46463.53
1171.00	46319.98
1172.00	46117.92
1173.00	45986.07
1174.00	45915.85
1175.00	45799.60
1176.00	45536.68
1177.00	45169.22
1178.00	44808.00
1179.00	44531.81
1180.00	44279.03
1181.00	44362.51
1182.00	44494.36
1183.00	44735.44
1184.00	44900.06
1185.00	45096.66
1186.00	45355.68
1187.00	45432.14
1188.00	45565.55
1189.00	45603.00
1190.00	45737.19
1191.00	45689.60
1192.00	45395.47
1193.00	45277.66
1194.00	45174.68
1195.00	45461.01
1196.00	45378.31
1197.00	45444.62
1198.00	45482.85
1199.00	45639.67
1200.00	45688.82
1201.00	45611.58
1202.00	45589.73
1203.00	45802.72
1204.00	45970.46
1205.00	46151.46
1206.00	45986.85
1207.00	46039.12
1208.00	45954.86
1209.00	45961.10
1210.00	45944.72
1211.00	45856.56
1212.00	45863.58
1213.00	45711.44
1214.00	45655.27
1215.00	45592.86
1216.00	45516.40
1217.00	45475.83
1218.00	45367.38
1219.00	45287.81
1220.00	45234.75
1221.00	44992.12
1222.00	44738.56
1223.00	44169.81
1224.00	43803.13
1225.00	43362.32
1226.00	43391.19
1227.00	43371.69
1228.00	43575.31
1229.00	43604.96
1230.00	43833.55
1231.00	44039.52
1232.00	44137.04
1233.00	44159.67
1234.00	44080.87
1235.00	44170.59
1236.00	44105.84
1237.00	43968.52
1238.00	43785.96
1239.00	43626.03
1240.00	43406.02
1241.00	42865.35
1242.00	42209.22
1243.00	41265.99
1244.00	40232.25
1245.00	39003.47
1246.00	37985.33
1247.00	37285.51
1248.00	37106.07
1249.00	37210.62
1250.00	37617.87
1251.00	38345.00
1252.00	39173.55
1253.00	40168.27
1254.00	40721.42
1255.00	41311.24
1256.00	41604.58
1257.00	41852.68
1258.00	41953.32
1259.00	41637.35
1260.00	41494.58
1261.00	41314.36
1262.00	41494.58
1263.00	41468.83
1264.00	41287.83
1265.00	41212.15
1266.00	41024.91
1267.00	41315.14
1268.00	41385.35
1269.00	41585.08
1270.00	41290.17
1271.00	41322.16
1272.00	41276.13
1273.00	41320.60
1274.00	41153.64
1275.00	40958.59
1276.00	40875.90
1277.00	40651.98
1278.00	40638.72
1279.00	40332.11
1280.00	40068.41
1281.00	39797.69
1282.00	39825.78
1283.00	39903.01
1284.00	39930.32
1285.00	40137.07
1286.00	40403.11
1287.00	40414.81
1288.00	40368.78
1289.00	40495.95
1290.00	40708.94
1291.00	40821.28
1292.00	40771.35
1293.00	40815.04
1294.00	40810.36
1295.00	40674.61
1296.00	40684.75
1297.00	40506.09
1298.00	40497.51
1299.00	40407.79
1300.00	40403.11
1301.00	40410.91
1302.00	40246.29
1303.00	40129.26
1304.00	40004.44
1305.00	40036.42
1306.00	39894.43
1307.00	39831.24
1308.00	39746.98
1309.00	39819.53
1310.00	39824.22
1311.00	40006.00
1312.00	40291.54
1313.00	40309.49
1314.00	40104.30
1315.00	39881.95
1316.00	39872.59
1317.00	39906.13
1318.00	39763.36
1319.00	39670.52
1320.00	39484.06
1321.00	39487.96
1322.00	39278.87
1323.00	39240.64
1324.00	39192.27
1325.00	39013.61
1326.00	38891.12
1327.00	38745.23
1328.00	38832.61
1329.00	38767.85
1330.00	38758.49
1331.00	38780.34
1332.00	38741.33
1333.00	38845.09
1334.00	39136.88
1335.00	39468.45
1336.00	39577.68
1337.00	39658.04
1338.00	39658.82
1339.00	39743.08
1340.00	39643.21
1341.00	39601.08
1342.00	39462.21
1343.00	39474.70
1344.00	39464.55
1345.00	39459.09
1346.00	39441.15
1347.00	39285.89
1348.00	39048.72
1349.00	38633.66
1350.00	38547.84
1351.00	38614.16
1352.00	38625.08
1353.00	38700.76
1354.00	38393.37
1355.00	38320.03
1356.00	38120.31
1357.00	38332.51
1358.00	38259.96
1359.00	38221.73
1360.00	38252.16
1361.00	38461.24
1362.00	38501.81
1363.00	38409.75
1364.00	38056.33
1365.00	37967.39
1366.00	37762.20
1367.00	37693.55
1368.00	37598.37
1369.00	37502.40
1370.00	37452.47
1371.00	37389.28
1372.00	37313.60
1373.00	37302.68
1374.00	37172.39
1375.00	37161.47
1376.00	37265.23
1377.00	37171.61
1378.00	37082.67
1379.00	36760.45
1380.00	36676.97
1381.00	36522.50
1382.00	36431.22
1383.00	36303.27
1384.00	36335.26
1385.00	36494.41
1386.00	36687.90
1387.00	36828.33
1388.00	36844.71
1389.00	36761.23
1390.00	36708.96
1391.00	36549.03
1392.00	36357.88
1393.00	35910.84
1394.00	35665.86
1395.00	35464.58
1396.00	35621.39
1397.00	35709.55
1398.00	35943.61
1399.00	35878.85
1400.00	35971.69
1401.00	35714.23
1402.00	35502.81
1403.00	34942.64
1404.00	34510.42
1405.00	34401.97
1406.00	34605.60
1407.00	35076.05
1408.00	35104.13
1409.00	35253.15
1410.00	35303.08
1411.00	35491.10
1412.00	35395.14
1413.00	35182.15
1414.00	35030.02
1415.00	34895.83
1416.00	34722.63
1417.00	34507.30
1418.00	34016.57
1419.00	33624.92
1420.00	33318.31
1421.00	33344.05
1422.00	33319.09
1423.00	33254.33
1424.00	33169.29
1425.00	33164.61
1426.00	33357.31
1427.00	33694.35
1428.00	34017.35
1429.00	34082.10
1430.00	34245.16
1431.00	34320.84
1432.00	34447.22
1433.00	34458.15
1434.00	34438.64
1435.00	34510.42
1436.00	34125.01
1437.00	33854.29
1438.00	33521.15
1439.00	33518.03
1440.00	33481.36
1441.00	33574.98
1442.00	33651.44
1443.00	33837.90
1444.00	33860.53
1445.00	33845.71
1446.00	33702.93
1447.00	33625.70
1448.00	33692.79
1449.00	33784.07
1450.00	33834.00
1451.00	33858.97
1452.00	33767.69
1453.00	33479.80
1454.00	33070.99
1455.00	32792.47
1456.00	32502.24
1457.00	32510.82
1458.00	32666.86
1459.00	32852.54
1460.00	32882.19
1461.00	32693.38
1462.00	32619.27
1463.00	32435.92
1464.00	32208.89
1465.00	31953.77
1466.00	31832.85
1467.00	31658.09
1468.00	31704.90
1469.00	31680.71
1470.00	31811.78
1471.00	31705.68
1472.00	31419.35
1473.00	31239.91
1474.00	31125.22
1475.00	31136.15
1476.00	31044.09
1477.00	30989.47
1478.00	30827.20
1479.00	30674.28
1480.00	30331.78
1481.00	30297.45
1482.00	30220.22
1483.00	30347.39
1484.00	30264.69
1485.00	30320.08
1486.00	30355.19
1487.00	30480.02
1488.00	30472.21
1489.00	30594.70
1490.00	30587.68
1491.00	30654.78
1492.00	30353.63
1493.00	30051.70
1494.00	29468.12
1495.00	28948.53
1496.00	28374.31
1497.00	27977.20
1498.00	27782.94
1499.00	27851.59
1500.00	28119.20
1501.00	28480.42
1502.00	28863.49
1503.00	28980.51
1504.00	28938.38
1505.00	28903.28
1506.00	28914.98
1507.00	28879.09
1508.00	28697.31
1509.00	28514.75
1510.00	28179.27
1511.00	27906.21
1512.00	27825.07
1513.00	28112.17
1514.00	28347.79
1515.00	28542.05
1516.00	28571.70
1517.00	28664.54
1518.00	28669.22
1519.00	28599.79
1520.00	28457.79
1521.00	28166.79
1522.00	27954.58
1523.00	27796.20
1524.00	27859.40
1525.00	28041.18
1526.00	28112.17
1527.00	28300.98
1528.00	28424.25
1529.00	28584.96
1530.00	28630.21
1531.00	28638.80
1532.00	28655.18
1533.00	28465.60
1534.00	28263.53
1535.00	28053.66
1536.00	28011.53
1537.00	28040.40
1538.00	28046.64
1539.00	28091.89
1540.00	28055.22
1541.00	28132.46
1542.00	28263.53
1543.00	28329.84
1544.00	28387.58
1545.00	28381.34
1546.00	28418.00
1547.00	28336.87
1548.00	28236.22
1549.00	28233.10
1550.00	28042.74
1551.00	27792.30
1552.00	27539.52
1553.00	27635.49
1554.00	27718.18
1555.00	27797.76
1556.00	27817.27
1557.00	27958.48
1558.00	28051.32
1559.00	28190.97
1560.00	28091.11
1561.00	28128.56
1562.00	28026.35
1563.00	28086.43
1564.00	28013.87
1565.00	27974.86
1566.00	27928.05
1567.00	27945.22
1568.00	27914.79
1569.00	27813.37
1570.00	27755.63
1571.00	27610.52
1572.00	27477.11
1573.00	27278.16
1574.00	27187.66
1575.00	27111.99
1576.00	26954.39
1577.00	26947.37
1578.00	26934.88
1579.00	26959.07
1580.00	26951.27
1581.00	26979.36
1582.00	26870.13
1583.00	26740.62
1584.00	26470.68
1585.00	26487.06
1586.00	26357.55
1587.00	26359.11
1588.00	26373.16
1589.00	26349.75
1590.00	26285.78
1591.00	26210.10
1592.00	26224.14
1593.00	26345.85
1594.00	26406.70
1595.00	26310.74
1596.00	26352.87
1597.00	26326.35
1598.00	26302.16
1599.00	26202.30
1600.00	26169.53
1601.00	26222.58
1602.00	26131.30
1603.00	25925.33
1604.00	25775.54
1605.00	25743.55
1606.00	25800.51
1607.00	25834.05
1608.00	25833.27
1609.00	25926.89
1610.00	25890.23
1611.00	25912.85
1612.00	25787.24
1613.00	25753.69
1614.00	25632.77
1615.00	25502.48
1616.00	25312.11
1617.00	25217.71
1618.00	24978.20
1619.00	25023.45
1620.00	24836.20
1621.00	24871.31
1622.00	24758.19
1623.00	24670.03
1624.00	24627.90
1625.00	24664.57
1626.00	24578.75
1627.00	24411.01
1628.00	24313.48
1629.00	24317.39
1630.00	24386.04
1631.00	24299.44
1632.00	24220.64
1633.00	24064.61
1634.00	23927.30
1635.00	23981.13
1636.00	24062.27
1637.00	24088.01
1638.00	23926.52
1639.00	23743.17
1640.00	23515.36
1641.00	23298.47
1642.00	23051.16
1643.00	22884.98
1644.00	22881.08
1645.00	22920.09
1646.00	23214.99
1647.00	23573.88
1648.00	23985.81
1649.00	24151.21
1650.00	24226.10
1651.00	24221.42
1652.00	24331.43
1653.00	24297.10
1654.00	24117.66
1655.00	23694.80
1656.00	23289.11
1657.00	23021.51
1658.00	22969.24
1659.00	23062.08
1660.00	23229.04
1661.00	23329.68
1662.00	23569.19
1663.00	23716.65
1664.00	23768.14
1665.00	23725.23
1666.00	23684.66
1667.00	23775.94
1668.00	23750.98
1669.00	23773.60
1670.00	23685.44
1671.00	23612.10
1672.00	23440.47
1673.00	23434.22
1674.00	23370.25
1675.00	23388.97
1676.00	23244.64
1677.00	23101.09
1678.00	22886.54
1679.00	22605.67
1680.00	22467.58
1681.00	22287.36
1682.00	22357.58
1683.00	22081.39
1684.00	21784.93
1685.00	21255.18
1686.00	20717.64
1687.00	20088.82
1688.00	19183.03
1689.00	18428.60
1690.00	17937.09
1691.00	18058.01
1692.00	18466.05
1693.00	18990.33
1694.00	19590.28
1695.00	20203.50
1696.00	20690.34
1697.00	20972.76
1698.00	21296.53
1699.00	21616.41
1700.00	21885.57
1701.00	21891.81
1702.00	22026.00
1703.00	22102.46
1704.00	22240.55
1705.00	22199.98
1706.00	22124.30
1707.00	22050.97
1708.00	22026.00
1709.00	22015.08
1710.00	21908.19
1711.00	21756.06
1712.00	21720.95
1713.00	21782.59
1714.00	21858.26
1715.00	21924.58
1716.00	21906.63
1717.00	21951.88
1718.00	21946.42
1719.00	22029.12
1720.00	21960.47
1721.00	21887.13
1722.00	21855.14
1723.00	21853.58
1724.00	21865.28
1725.00	21741.24
1726.00	21693.65
1727.00	21713.15
1728.00	21758.40
1729.00	21760.74
1730.00	21663.22
1731.00	21594.56
1732.00	21602.36
1733.00	21561.02
1734.00	21469.73
1735.00	21465.05
1736.00	21320.72
1737.00	21269.23
1738.00	21034.39
1739.00	21031.27
1740.00	20849.49
1741.00	20698.14
1742.00	20637.28
1743.00	20723.10
1744.00	20826.09
1745.00	20767.57
1746.00	20749.63
1747.00	20706.72
1748.00	20733.25
1749.00	20683.31
1750.00	20716.08
1751.00	20778.50
1752.00	20759.77
1753.00	20712.96
1754.00	20653.67
1755.00	20602.18
1756.00	20544.44
1757.00	20308.05
1758.00	20206.62
1759.00	20087.26
1760.00	20057.61
1761.00	20015.48
1762.00	20017.04
1763.00	19949.95
1764.00	19925.76
1765.00	19916.40
1766.00	19988.96
1767.00	19910.94
1768.00	19754.12
1769.00	19600.43
1770.00	19644.90
1771.00	19601.99
1772.00	19619.93
1773.00	19506.02
1774.00	19620.71
1775.00	19711.99
1776.00	19773.63
1777.00	19742.42
1778.00	19648.02
1779.00	19508.37
1780.00	19474.04
1781.00	19407.72
1782.00	19392.90
1783.00	19158.06
1784.00	18990.33
1785.00	18910.75
1786.00	18901.39
1787.00	18862.38
1788.00	18786.70
1789.00	18806.98
1790.00	18831.17
1791.00	18799.18
1792.00	18654.85
1793.00	18572.93
1794.00	18579.17
1795.00	18597.90
1796.00	18518.32
1797.00	18330.30
1798.00	18240.58
1799.00	18104.82
1800.00	18034.61
1801.00	17978.44
1802.00	17970.63
1803.00	17983.12
1804.00	17967.51
1805.00	17970.63
1806.00	18074.40
1807.00	18044.75
1808.00	18012.76
1809.00	17914.46
1810.00	17859.07
1811.00	17889.49
1812.00	17799.77
1813.00	17689.77
1814.00	17564.94
1815.00	17575.86
1816.00	17527.49
1817.00	17456.50
1818.00	17341.81
1819.00	17343.37
1820.00	17302.80
1821.00	17202.94
1822.00	17149.89
1823.00	17079.67
1824.00	17142.86
1825.00	17036.76
1826.00	17131.16
1827.00	17032.86
1828.00	17161.59
1829.00	17070.31
1830.00	16993.07
1831.00	16934.56
1832.00	16844.84
1833.00	16810.51
1834.00	16554.61
1835.00	16471.91
1836.00	16302.61
1837.00	16415.74
1838.00	16425.10
1839.00	16550.71
1840.00	16425.10
1841.00	16339.28
1842.00	16317.43
1843.00	16241.76
1844.00	16219.91
1845.00	16119.27
1846.00	16042.81
1847.00	15945.29
1848.00	15744.00
1849.00	15701.09
1850.00	15679.25
1851.00	15786.91
1852.00	15744.00
1853.00	15643.36
1854.00	15483.42
1855.00	15518.53
1856.00	15501.37
1857.00	15559.88
1858.00	15428.03
1859.00	15409.31
1860.00	15246.25
1861.00	15137.80
1862.00	15000.49
1863.00	14976.31
1864.00	14977.09
1865.00	14992.69
1866.00	14959.92
1867.00	14993.47
1868.00	14903.75
1869.00	14947.44
1870.00	14907.65
1871.00	14875.66
1872.00	14766.44
1873.00	14671.26
1874.00	14672.82
1875.00	14624.45
1876.00	14519.90
1877.00	14381.81
1878.00	14221.88
1879.00	14132.15
1880.00	14082.22
1881.00	14160.24
1882.00	14179.75
1883.00	14043.21
1884.00	13976.90
1885.00	13813.06
1886.00	13776.39
1887.00	13546.24
1888.00	13474.46
1889.00	13408.15
1890.00	13442.48
1891.00	13501.77
1892.00	13497.87
1893.00	13529.86
1894.00	13505.67
1895.00	13452.62
1896.00	13373.04
1897.00	13288.00
1898.00	13194.38
1899.00	13074.23
1900.00	13003.24
1901.00	12979.83
1902.00	12874.51
1903.00	12649.82
1904.00	12269.87
1905.00	11739.35
1906.00	10903.78
1907.00	9913.73
1908.00	9015.74
1909.00	8407.98
1910.00	8090.45
1911.00	7840.79
1912.00	7886.04
1913.00	8177.05
1914.00	8650.62
1915.00	9023.55
1916.00	9446.40
1917.00	9802.94
1918.00	10116.58
1919.00	10170.41
1920.00	10112.67
1921.00	9963.66
1922.00	9777.20
1923.00	9596.20
1924.00	9501.79
1925.00	9480.73
1926.00	9521.30
1927.00	9465.13
1928.00	9479.17
1929.00	9499.45
1930.00	9645.35
1931.00	9792.80
1932.00	9789.68
1933.00	9813.09
1934.00	9742.87
1935.00	9924.65
1936.00	10001.11
1937.00	10144.66
1938.00	10200.05
1939.00	10268.71
1940.00	10285.09
1941.00	10269.49
1942.00	10281.97
1943.00	10249.21
1944.00	10256.23
1945.00	10200.05
1946.00	10230.48
1947.00	10200.83
1948.00	10159.49
1949.00	10132.18
1950.00	10058.84
1951.00	10007.35
1952.00	9895.00
1953.00	9827.91
1954.00	9795.92
1955.00	9746.77
1956.00	9689.04
1957.00	9611.02
1958.00	9570.45
1959.00	9499.45
1960.00	9451.08
1961.00	9350.44
1962.00	9292.71
1963.00	9251.36
1964.00	9269.30
1965.00	9255.26
1966.00	9216.25
1967.00	9203.77
1968.00	9205.33
1969.00	9161.64
1970.00	9112.49
1971.00	9059.43
1972.00	9040.71
1973.00	9027.45
1974.00	9035.25
1975.00	9034.47
1976.00	8983.76
1977.00	9010.28
1978.00	9075.04
1979.00	9092.98
1980.00	9128.87
1981.00	9085.18
1982.00	9142.13
1983.00	9127.31
1984.00	9110.15
1985.00	9067.24
1986.00	8926.80
1987.00	8888.57
1988.00	8780.13
1989.00	8769.21
1990.00	8681.83
1991.00	8605.37
1992.00	8489.90
1993.00	8432.95
1994.00	8414.23
1995.00	8344.01
1996.00	8214.50
1997.00	8102.15
1998.00	8074.85
1999.00	8113.86
2000.00	8087.33
2001.00	8055.34
2002.00	7997.61
2003.00	8001.51
2004.00	8035.84
2005.00	7985.13
2006.00	7948.46
2007.00	7859.52
2008.00	7784.62
2009.00	7681.64
2010.00	7595.82
2011.00	7564.61
2012.00	7571.63
2013.00	7511.56
2014.00	7519.36
2015.00	7447.58
2016.00	7453.05
2017.00	7364.89
2018.00	7322.76
2019.00	7239.28
2020.00	7186.22
2021.00	7168.28
2022.00	7165.94
2023.00	7188.57
2024.00	7166.72
2025.00	7191.69
2026.00	7142.53
2027.00	7182.32
2028.00	7194.81
2029.00	7212.75
2030.00	7178.42
2031.00	7131.61
2032.00	7205.73
2033.00	7159.70
2034.00	7158.92
2035.00	7096.50
2036.00	7139.41
2037.00	7005.22
2038.00	6935.79
2039.00	6810.18
2040.00	6852.31
2041.00	6853.87
2042.00	6892.88
2043.00	6867.91
2044.00	6810.96
2045.00	6755.57
2046.00	6685.35
2047.00	6562.86
>>>>>End Processed Spectral Data<<<<<
