SpectraSuite Data File
++++++++++++++++++++++++++++++++++++
Date: Thu Nov 16 13:32:50 EST 2017
User: cheriyan
Dark Spectrum Present: No
Reference Spectrum Present: No
Number of Sampled Component Spectra: 1
Spectrometers: USB2+H05261
Integration Time (usec): 90000 (USB2+H05261)
Spectra Averaged: 1 (USB2+H05261)
Boxcar Smoothing: 1 (USB2+H05261)
Correct for Electrical Dark: No (USB2+H05261)
Strobe/Lamp Enabled: No (USB2+H05261)
Correct for Detector Non-linearity: No (USB2+H05261)
Correct for Stray Light: No (USB2+H05261)
Number of Pixels in Processed Spectrum: 2048
>>>>>Begin Processed Spectral Data<<<<<
0.00	390.87
1.00	390.87
2.00	346.40
3.00	289.45
4.00	243.42
5.00	257.46
6.00	270.72
7.00	277.74
8.00	261.36
9.00	244.98
10.00	222.35
11.00	227.03
12.00	241.08
13.00	246.54
14.00	218.45
15.00	228.59
16.00	244.98
17.00	276.18
18.00	270.72
19.00	287.11
20.00	277.74
21.00	296.47
22.00	284.77
23.00	756.77
24.00	2450.54
25.00	4255.87
26.00	5635.23
27.00	5727.29
28.00	5604.80
29.00	5398.84
30.00	5207.69
31.00	5133.58
32.00	5153.86
33.00	5206.13
34.00	5174.14
35.00	5041.51
36.00	4842.57
37.00	4666.25
38.00	4617.88
39.00	4700.58
40.00	4841.79
41.00	4917.47
42.00	4896.40
43.00	4867.53
44.00	4903.42
45.00	5126.55
46.00	5402.74
47.00	5653.95
48.00	5752.26
49.00	5800.63
50.00	5755.38
51.00	5746.02
52.00	5749.14
53.00	5917.65
54.00	6083.05
55.00	6320.23
56.00	6511.37
57.00	6764.15
58.00	7065.30
59.00	7308.71
60.00	7490.49
61.00	7451.49
62.00	7340.70
63.00	7034.09
64.00	6724.36
65.00	6421.65
66.00	6239.87
67.00	6093.97
68.00	5992.55
69.00	5927.80
70.00	6105.68
71.00	6375.62
72.00	6711.88
73.00	6937.35
74.00	7027.07
75.00	6975.58
76.00	6752.45
77.00	6473.92
78.00	6122.06
79.00	5800.63
80.00	5513.52
81.00	5292.73
82.00	5061.80
83.00	4858.95
84.00	4684.97
85.00	4608.51
86.00	4598.37
87.00	4589.79
88.00	4611.64
89.00	4687.31
90.00	4872.22
91.00	5219.39
92.00	5680.48
93.00	6135.32
94.00	6498.89
95.00	6666.63
96.00	6739.96
97.00	6661.94
98.00	6510.59
99.00	6331.15
100.00	6191.50
101.00	6186.82
102.00	6372.50
103.00	6627.62
104.00	6740.74
105.00	6730.60
106.00	6585.49
107.00	6573.00
108.00	6572.22
109.00	6686.91
110.00	6747.76
111.00	6757.91
112.00	6694.71
113.00	6663.51
114.00	6696.27
115.00	6871.81
116.00	7113.67
117.00	7488.15
118.00	7841.57
119.00	8214.50
120.00	8434.51
121.00	8523.45
122.00	8526.57
123.00	8540.61
124.00	8662.32
125.00	8901.06
126.00	9151.49
127.00	9429.24
128.00	9557.19
129.00	9564.99
130.00	9398.81
131.00	9135.11
132.00	8746.58
133.00	8312.80
134.00	7726.11
135.00	7058.28
136.00	6231.29
137.00	5458.91
138.00	4890.94
139.00	4662.35
140.00	4833.21
141.00	5374.65
142.00	6106.46
143.00	6881.96
144.00	7677.74
145.00	8393.16
146.00	8998.58
147.00	9426.90
148.00	9822.45
149.00	10047.92
150.00	10090.83
151.00	9763.15
152.00	9311.43
153.00	8532.81
154.00	7653.55
155.00	6729.04
156.00	6086.17
157.00	5873.96
158.00	6148.59
159.00	6915.50
160.00	7997.61
161.00	9192.06
162.00	10324.88
163.00	11220.53
164.00	11855.59
165.00	12231.64
166.00	12592.86
167.00	12897.13
168.00	13365.24
169.00	13635.96
170.00	13825.54
171.00	13788.10
172.00	13870.01
173.00	13936.33
174.00	14075.20
175.00	14122.01
176.00	14280.39
177.00	14500.40
178.00	14769.56
179.00	14945.10
180.00	15047.30
181.00	15182.28
182.00	15387.46
183.00	15550.52
184.00	15584.07
185.00	15556.76
186.00	15449.88
187.00	15442.85
188.00	15336.75
189.00	15123.76
190.00	14998.15
191.00	15077.73
192.00	15389.80
193.00	15668.33
194.00	15780.67
195.00	15629.32
196.00	15396.82
197.00	15222.06
198.00	15279.80
199.00	15270.44
200.00	15345.33
201.00	15399.16
202.00	15445.20
203.00	15355.47
204.00	15129.22
205.00	15045.74
206.00	14912.33
207.00	15002.05
208.00	15167.45
209.00	15408.53
210.00	15631.66
211.00	15594.21
212.00	15500.59
213.00	15494.35
214.00	15832.94
215.00	16209.77
216.00	16631.07
217.00	16913.49
218.00	17209.18
219.00	17393.30
220.00	17463.52
221.00	17380.82
222.00	17133.50
223.00	16563.97
224.00	15988.20
225.00	15382.00
226.00	15144.05
227.00	15250.15
228.00	15760.39
229.00	16351.76
230.00	17047.68
231.00	17586.01
232.00	18082.20
233.00	18401.29
234.00	18554.21
235.00	18626.76
236.00	18708.68
237.00	18782.02
238.00	18795.28
239.00	18608.82
240.00	18381.01
241.00	18236.67
242.00	18276.46
243.00	18429.38
244.00	18702.44
245.00	18889.68
246.00	19077.71
247.00	19158.85
248.00	19097.21
249.00	19079.27
250.00	19138.56
251.00	19217.36
252.00	19225.16
253.00	19051.96
254.00	19180.69
255.00	19389.78
256.00	19816.54
257.00	20179.32
258.00	20535.08
259.00	20597.49
260.00	20583.45
261.00	20306.49
262.00	19926.54
263.00	19560.64
264.00	19413.96
265.00	19525.53
266.00	19608.23
267.00	19743.98
268.00	19782.99
269.00	19776.75
270.00	19835.26
271.00	19996.76
272.00	20346.28
273.00	20553.02
274.00	20574.09
275.00	20400.11
276.00	20088.82
277.00	19850.08
278.00	19665.18
279.00	19904.70
280.00	20446.92
281.00	21213.06
282.00	21732.65
283.00	21993.23
284.00	21962.03
285.00	21763.08
286.00	21703.79
287.00	21477.54
288.00	21250.50
289.00	20743.39
290.00	20291.66
291.00	19708.09
292.00	19469.36
293.00	19716.67
294.00	20223.79
295.00	20678.63
296.00	20717.64
297.00	20733.25
298.00	20760.55
299.00	20744.17
300.00	20855.73
301.00	20510.11
302.00	20430.54
303.00	20306.49
304.00	20394.65
305.00	20464.86
306.00	20301.03
307.00	20284.64
308.00	20032.65
309.00	19967.11
310.00	20150.45
311.00	20552.24
312.00	20686.43
313.00	20425.08
314.00	19808.73
315.00	19296.16
316.00	18929.47
317.00	18931.81
318.00	19142.46
319.00	19463.90
320.00	19974.91
321.00	20191.80
322.00	20162.94
323.00	19704.97
324.00	19482.62
325.00	19329.70
326.00	19240.76
327.00	18931.03
328.00	18405.97
329.00	17661.68
330.00	16888.53
331.00	16080.26
332.00	15401.51
333.00	14837.44
334.00	14647.85
335.00	14912.33
336.00	15561.44
337.00	16648.23
338.00	18202.35
339.00	20101.30
340.00	21731.87
341.00	22405.95
342.00	22111.82
343.00	21401.86
344.00	20912.69
345.00	21049.22
346.00	21505.62
347.00	22203.88
348.00	22493.33
349.00	22318.57
350.00	21620.31
351.00	20660.69
352.00	20088.04
353.00	19945.27
354.00	20472.67
355.00	21083.55
356.00	21729.53
357.00	22153.17
358.00	22420.77
359.00	22732.06
360.00	22783.55
361.00	23319.54
362.00	23617.57
363.00	24126.24
364.00	24291.64
365.00	24191.00
366.00	24060.71
367.00	23828.21
368.00	23708.85
369.00	23367.91
370.00	23167.40
371.00	22995.76
372.00	22857.67
373.00	22317.01
374.00	21706.13
375.00	21188.87
376.00	20925.95
377.00	21137.38
378.00	21628.11
379.00	22353.68
380.00	22940.37
381.00	23512.24
382.00	24070.85
383.00	24404.77
384.00	24447.68
385.00	24117.66
386.00	23779.84
387.00	23754.10
388.00	24156.67
389.00	24976.64
390.00	25759.94
391.00	26101.65
392.00	26203.86
393.00	26497.20
394.00	26976.23
395.00	27365.54
396.00	27417.04
397.00	27631.58
398.00	27803.22
399.00	28160.55
400.00	27988.13
401.00	27948.34
402.00	27701.02
403.00	27977.20
404.00	28207.36
405.00	28477.30
406.00	28478.86
407.00	28231.54
408.00	27953.02
409.00	27894.50
410.00	28037.28
411.00	28183.95
412.00	27752.51
413.00	27236.03
414.00	26526.07
415.00	26201.52
416.00	26176.55
417.00	26324.79
418.00	26772.61
419.00	27040.21
420.00	27536.40
421.00	27973.30
422.00	28432.05
423.00	28778.45
424.00	28994.56
425.00	29138.89
426.00	29053.85
427.00	28795.61
428.00	28535.81
429.00	28433.61
430.00	28493.68
431.00	28542.05
432.00	28678.58
433.00	28629.43
434.00	28787.81
435.00	28925.12
436.00	29213.01
437.00	29475.15
438.00	29627.28
439.00	30045.46
440.00	30575.20
441.00	31110.40
442.00	31295.30
443.00	31151.75
444.00	31052.67
445.00	30838.90
446.00	30575.20
447.00	30364.55
448.00	30335.68
449.00	30170.29
450.00	29901.90
451.00	29480.61
452.00	28960.23
453.00	28290.84
454.00	27798.54
455.00	27737.69
456.00	28059.12
457.00	28479.64
458.00	29029.66
459.00	29311.31
460.00	29660.05
461.00	29747.43
462.00	29829.35
463.00	29622.60
464.00	29492.31
465.00	29335.49
466.00	29355.78
467.00	29539.12
468.00	29845.73
469.00	30283.41
470.00	30771.80
471.00	31049.55
472.00	31154.09
473.00	30962.17
474.00	31317.93
475.00	31459.92
476.00	31811.78
477.00	31950.65
478.00	32073.14
479.00	32086.40
480.00	31579.29
481.00	31389.70
482.00	30885.71
483.00	30659.46
484.00	30543.21
485.00	30773.36
486.00	31094.80
487.00	31219.63
488.00	31252.39
489.00	31301.54
490.00	31127.56
491.00	31116.64
492.00	31165.79
493.00	31268.78
494.00	31300.76
495.00	31243.03
496.00	31672.13
497.00	31944.41
498.00	32273.65
499.00	32308.76
500.00	32259.60
501.00	32270.53
502.00	32309.54
503.00	32573.24
504.00	32943.04
505.00	33156.81
506.00	33132.62
507.00	33167.73
508.00	33067.87
509.00	33115.46
510.00	32878.29
511.00	32691.04
512.00	32620.83
513.00	32401.60
514.00	32360.25
515.00	32322.02
516.00	32346.98
517.00	32094.99
518.00	31747.81
519.00	31342.11
520.00	31679.93
521.00	31788.38
522.00	32050.52
523.00	32117.61
524.00	32471.81
525.00	32840.06
526.00	32607.56
527.00	32236.20
528.00	31440.42
529.00	30937.20
530.00	30603.28
531.00	30820.95
532.00	31103.38
533.00	31341.33
534.00	31628.44
535.00	31910.86
536.00	31781.35
537.00	31449.00
538.00	31434.17
539.00	31729.86
540.00	32077.82
541.00	32161.30
542.00	32231.52
543.00	32405.50
544.00	32467.91
545.00	32384.43
546.00	31984.20
547.00	31584.75
548.00	31237.57
549.00	31161.11
550.00	31029.26
551.00	31126.78
552.00	31286.72
553.00	31445.88
554.00	31750.93
555.00	32200.31
556.00	32793.25
557.00	33379.94
558.00	33844.15
559.00	34242.04
560.00	34377.79
561.00	34260.76
562.00	33791.87
563.00	33447.82
564.00	33056.95
565.00	33246.53
566.00	33558.60
567.00	33644.42
568.00	33741.94
569.00	33547.68
570.00	34200.69
571.00	34546.31
572.00	34957.46
573.00	34959.02
574.00	34976.19
575.00	35125.20
576.00	35186.83
577.00	35111.16
578.00	35023.78
579.00	34831.07
580.00	34880.22
581.00	34664.11
582.00	34819.37
583.00	34710.92
584.00	35015.19
585.00	35196.98
586.00	35839.06
587.00	36095.74
588.00	36479.59
589.00	36903.23
590.00	37549.21
591.00	38117.96
592.00	38373.86
593.00	38443.30
594.00	38197.54
595.00	37976.75
596.00	38061.01
597.00	38372.30
598.00	39051.06
599.00	39475.48
600.00	39834.36
601.00	39793.79
602.00	39740.74
603.00	39782.09
604.00	40038.76
605.00	40642.62
606.00	40681.63
607.00	40847.81
608.00	40733.90
609.00	41174.70
610.00	41508.62
611.00	41829.27
612.00	42220.14
613.00	42469.02
614.00	42756.91
615.00	42662.50
616.00	42602.43
617.00	42632.08
618.00	42841.95
619.00	42919.96
620.00	43094.72
621.00	43493.40
622.00	43842.92
623.00	44233.78
624.00	43914.69
625.00	43725.11
626.00	43429.42
627.00	43565.95
628.00	43976.33
629.00	44365.63
630.00	44860.27
631.00	44632.46
632.00	43899.09
633.00	43047.13
634.00	41698.20
635.00	39951.38
636.00	38072.71
637.00	37333.10
638.00	37935.40
639.00	38990.20
640.00	40211.96
641.00	41179.39
642.00	42217.02
643.00	42947.27
644.00	43831.21
645.00	44495.14
646.00	45412.63
647.00	46104.65
648.00	46781.85
649.00	47100.94
650.00	46888.73
651.00	46639.86
652.00	46160.83
653.00	46217.00
654.00	46561.06
655.00	47619.76
656.00	48774.42
657.00	49642.76
658.00	50207.61
659.00	50467.41
660.00	50696.78
661.00	50627.35
662.00	50494.72
663.00	50252.86
664.00	50158.46
665.00	50142.86
666.00	50339.46
667.00	50179.53
668.00	49756.67
669.00	48949.96
670.00	48389.02
671.00	48296.17
672.00	48935.14
673.00	49957.95
674.00	50979.99
675.00	51654.84
676.00	51874.07
677.00	51759.39
678.00	51404.41
679.00	51140.71
680.00	51147.73
681.00	51523.77
682.00	52211.11
683.00	52752.55
684.00	53354.07
685.00	53588.13
686.00	53772.25
687.00	53737.14
688.00	53597.49
689.00	53305.70
690.00	52874.26
691.00	52718.23
692.00	52878.94
693.00	53297.12
694.00	53737.92
695.00	54104.60
696.00	54212.27
697.00	54280.14
698.00	54342.56
699.00	54467.39
700.00	54644.49
701.00	54700.66
702.00	54526.68
703.00	54134.25
704.00	53602.95
705.00	53130.16
706.00	52934.34
707.00	53184.77
708.00	53737.92
709.00	54328.51
710.00	54614.06
711.00	54986.21
712.00	55014.29
713.00	55132.88
714.00	54880.88
715.00	54598.46
716.00	54163.12
717.00	53822.18
718.00	53470.32
719.00	53413.37
720.00	53422.73
721.00	53406.34
722.00	53194.92
723.00	52949.94
724.00	52907.03
725.00	52935.12
726.00	53074.77
727.00	53404.78
728.00	53692.67
729.00	53974.31
730.00	54275.46
731.00	54447.88
732.00	54713.14
733.00	54682.72
734.00	54767.76
735.00	54455.68
736.00	54023.47
737.00	53534.29
738.00	53282.30
739.00	53475.00
740.00	53841.68
741.00	54356.60
742.00	54546.96
743.00	54695.20
744.00	54852.01
745.00	55265.51
746.00	55565.88
747.00	55925.54
748.00	56147.11
749.00	56350.74
750.00	56324.99
751.00	56055.05
752.00	55893.55
753.00	55590.84
754.00	55483.96
755.00	55306.86
756.00	55278.77
757.00	55188.27
758.00	54938.61
759.00	54612.50
760.00	54310.57
761.00	54223.19
762.00	54436.96
763.00	54806.76
764.00	55184.37
765.00	55587.72
766.00	56037.11
767.00	56516.14
768.00	56527.84
769.00	56406.91
770.00	56126.83
771.00	55913.84
772.00	55781.21
773.00	55673.54
774.00	55788.23
775.00	55721.13
776.00	55702.41
777.00	55781.21
778.00	55907.60
779.00	56175.20
780.00	56403.79
781.00	56731.46
782.00	56833.67
783.00	56789.20
784.00	56550.46
785.00	56197.04
786.00	55941.14
787.00	55705.53
788.00	55743.76
789.00	55715.67
790.00	55757.02
791.00	55748.44
792.00	55684.47
793.00	55532.33
794.00	55454.31
795.00	55154.72
796.00	55159.41
797.00	54988.55
798.00	55234.30
799.00	55321.68
800.00	55540.13
801.00	55643.12
802.00	55758.58
803.00	55882.63
804.00	56035.55
805.00	56267.26
806.00	56381.95
807.00	56126.83
808.00	55472.26
809.00	54288.73
810.00	52843.05
811.00	51435.61
812.00	50336.34
813.00	49785.54
814.00	50237.26
815.00	51465.26
816.00	53104.41
817.00	53948.57
818.00	54071.06
819.00	53393.08
820.00	52697.94
821.00	52354.66
822.00	52644.89
823.00	53236.27
824.00	53821.40
825.00	54351.14
826.00	54756.83
827.00	55140.68
828.00	55474.60
829.00	55824.90
830.00	56050.37
831.00	56070.65
832.00	55886.53
833.00	55604.11
834.00	55455.09
835.00	55414.52
836.00	55789.79
837.00	56110.44
838.00	56389.75
839.00	56410.03
840.00	56465.42
841.00	56539.54
842.00	56533.30
843.00	56379.60
844.00	56063.63
845.00	55666.52
846.00	55391.90
847.00	55231.96
848.00	55288.13
849.00	55560.42
850.00	55950.51
851.00	56433.44
852.00	56807.92
853.00	57148.08
854.00	57315.82
855.00	57338.44
856.00	57284.61
857.00	57092.69
858.00	56896.86
859.00	56653.45
860.00	56672.95
861.00	56699.48
862.00	56931.19
863.00	56995.95
864.00	56874.24
865.00	56222.01
866.00	55373.17
867.00	54400.29
868.00	53536.63
869.00	52885.96
870.00	52599.64
871.00	52835.25
872.00	53265.91
873.00	53991.48
874.00	54763.85
875.00	55407.50
876.00	55786.67
877.00	55868.59
878.00	56064.41
879.00	56302.37
880.00	56626.92
881.00	56933.53
882.00	57159.00
883.00	57310.36
884.00	57208.93
885.00	56903.10
886.00	56427.98
887.00	56060.51
888.00	55965.33
889.00	56101.86
890.00	56353.86
891.00	56600.40
892.00	56883.60
893.00	56934.31
894.00	57046.66
895.00	57011.55
896.00	56974.88
897.00	56729.90
898.00	56654.23
899.00	56547.34
900.00	56303.93
901.00	55876.39
902.00	55321.68
903.00	54660.87
904.00	54229.43
905.00	54216.17
906.00	54580.51
907.00	54939.39
908.00	55214.80
909.00	55738.30
910.00	55940.36
911.00	56009.80
912.00	55661.84
913.00	55593.18
914.00	55408.28
915.00	55495.66
916.00	55565.10
917.00	55824.12
918.00	56087.82
919.00	56159.59
920.00	56465.42
921.00	56612.10
922.00	56859.41
923.00	56738.49
924.00	56533.30
925.00	56162.71
926.00	55766.38
927.00	55246.01
928.00	54833.29
929.00	54614.06
930.00	54670.23
931.00	54930.03
932.00	55244.44
933.00	55554.18
934.00	55636.87
935.00	55716.45
936.00	55730.50
937.00	55877.95
938.00	55826.46
939.00	55730.50
940.00	55546.37
941.00	55254.59
942.00	54951.88
943.00	54659.31
944.00	54595.34
945.00	54441.64
946.00	54336.32
947.00	54071.84
948.00	53969.63
949.00	53657.56
950.00	53587.35
951.00	53434.43
952.00	53367.34
953.00	53276.83
954.00	53545.22
955.00	53901.76
956.00	54322.27
957.00	54494.69
958.00	54674.13
959.00	54677.25
960.00	54531.36
961.00	54404.19
962.00	54349.58
963.00	54294.97
964.00	54290.29
965.00	54159.22
966.00	54150.63
967.00	54226.31
968.00	54441.64
969.00	54641.37
970.00	54968.26
971.00	55265.51
972.00	55554.18
973.00	55275.65
974.00	54997.13
975.00	54770.10
976.00	54697.54
977.00	54598.46
978.00	54516.54
979.00	54476.75
980.00	54494.69
981.00	54674.13
982.00	54710.02
983.00	54740.45
984.00	54547.75
985.00	54538.38
986.00	54439.30
987.00	54339.44
988.00	54404.97
989.00	54300.43
990.00	54273.90
991.00	53825.30
992.00	53606.85
993.00	53276.05
994.00	53340.03
995.00	53498.40
996.00	53803.45
997.00	54124.11
998.00	54337.10
999.00	54497.03
1000.00	54582.07
1001.00	54609.38
1002.00	54498.59
1003.00	54337.10
1004.00	54302.77
1005.00	54305.11
1006.00	54297.31
1007.00	54224.75
1008.00	54135.81
1009.00	53975.87
1010.00	53907.22
1011.00	53788.63
1012.00	53812.04
1013.00	53561.60
1014.00	53459.40
1015.00	53464.86
1016.00	53680.97
1017.00	53996.94
1018.00	54276.24
1019.00	54437.74
1020.00	54232.55
1021.00	53950.13
1022.00	53641.18
1023.00	53408.68
1024.00	53230.02
1025.00	53223.78
1026.00	53467.20
1027.00	53606.85
1028.00	53663.02
1029.00	53512.45
1030.00	53531.95
1031.00	53755.86
1032.00	54039.07
1033.00	54132.69
1034.00	54062.47
1035.00	54128.79
1036.00	54223.19
1037.00	54238.79
1038.00	54119.43
1039.00	53923.60
1040.00	53744.94
1041.00	53505.43
1042.00	53312.72
1043.00	53253.43
1044.00	53173.85
1045.00	53035.76
1046.00	52803.27
1047.00	52539.57
1048.00	52480.27
1049.00	52338.28
1050.00	52400.69
1051.00	52431.12
1052.00	52623.82
1053.00	52800.15
1054.00	52855.54
1055.00	52719.01
1056.00	52445.16
1057.00	52136.99
1058.00	51706.33
1059.00	51238.23
1060.00	50875.44
1061.00	50781.82
1062.00	50998.71
1063.00	51127.44
1064.00	51236.67
1065.00	51079.85
1066.00	51179.71
1067.00	51197.66
1068.00	51498.81
1069.00	51735.98
1070.00	52053.51
1071.00	52395.23
1072.00	52690.92
1073.00	52836.81
1074.00	52657.37
1075.00	52305.51
1076.00	51789.03
1077.00	51551.08
1078.00	51299.08
1079.00	51349.79
1080.00	51222.62
1081.00	51388.02
1082.00	51623.64
1083.00	51815.56
1084.00	51919.32
1085.00	51905.28
1086.00	52011.38
1087.00	51956.77
1088.00	51666.55
1089.00	51463.70
1090.00	51111.84
1091.00	51150.85
1092.00	51015.10
1093.00	51196.10
1094.00	51228.09
1095.00	51308.44
1096.00	51171.91
1097.00	51083.75
1098.00	50901.97
1099.00	50747.50
1100.00	50403.44
1101.00	49982.92
1102.00	49726.24
1103.00	49520.27
1104.00	49614.68
1105.00	49716.88
1106.00	49956.39
1107.00	50044.55
1108.00	50161.58
1109.00	50334.78
1110.00	50594.58
1111.00	50703.03
1112.00	50919.91
1113.00	50876.22
1114.00	50900.41
1115.00	50494.72
1116.00	50099.17
1117.00	49586.59
1118.00	49296.36
1119.00	49007.70
1120.00	48715.13
1121.00	48502.14
1122.00	48543.49
1123.00	48816.55
1124.00	49051.39
1125.00	49088.84
1126.00	48812.65
1127.00	48623.85
1128.00	48326.60
1129.00	48304.76
1130.00	48142.48
1131.00	48019.21
1132.00	47532.38
1133.00	46976.11
1134.00	46626.59
1135.00	46581.34
1136.00	46816.96
1137.00	47159.45
1138.00	47413.79
1139.00	47839.77
1140.00	48090.21
1141.00	48392.92
1142.00	48524.77
1143.00	48546.61
1144.00	48685.48
1145.00	48596.54
1146.00	48594.20
1147.00	48394.48
1148.00	48220.50
1149.00	48022.33
1150.00	47973.96
1151.00	47948.21
1152.00	48059.00
1153.00	48016.09
1154.00	47932.61
1155.00	47640.82
1156.00	47417.69
1157.00	47214.07
1158.00	46873.13
1159.00	46615.67
1160.00	46330.12
1161.00	46340.27
1162.00	46241.96
1163.00	46068.76
1164.00	46064.86
1165.00	46007.91
1166.00	46078.91
1167.00	46114.01
1168.00	46374.59
1169.00	46658.58
1170.00	46611.77
1171.00	46459.63
1172.00	46252.89
1173.00	46071.89
1174.00	45943.16
1175.00	45848.75
1176.00	45677.90
1177.00	45315.11
1178.00	44778.35
1179.00	44480.32
1180.00	44399.96
1181.00	44545.86
1182.00	44793.17
1183.00	44884.45
1184.00	44925.80
1185.00	45114.61
1186.00	45486.75
1187.00	45820.67
1188.00	45811.31
1189.00	45847.19
1190.00	45809.75
1191.00	45938.47
1192.00	45715.34
1193.00	45655.27
1194.00	45580.37
1195.00	45641.23
1196.00	45691.16
1197.00	45602.22
1198.00	45766.06
1199.00	45908.83
1200.00	46032.88
1201.00	46023.51
1202.00	45943.94
1203.00	46144.44
1204.00	46170.19
1205.00	46297.36
1206.00	46170.19
1207.00	46319.98
1208.00	46353.53
1209.00	46351.97
1210.00	46158.49
1211.00	46047.70
1212.00	46042.24
1213.00	46153.02
1214.00	46039.12
1215.00	45912.73
1216.00	45738.75
1217.00	45725.49
1218.00	45773.08
1219.00	45731.73
1220.00	45336.96
1221.00	44960.91
1222.00	44559.90
1223.00	44554.44
1224.00	44190.09
1225.00	43919.37
1226.00	43604.18
1227.00	43544.89
1228.00	43374.81
1229.00	43527.72
1230.00	43606.52
1231.00	43996.61
1232.00	44190.87
1233.00	44456.92
1234.00	44286.84
1235.00	44128.46
1236.00	44098.81
1237.00	44091.01
1238.00	44010.65
1239.00	43929.51
1240.00	43619.78
1241.00	43268.70
1242.00	42458.10
1243.00	41592.88
1244.00	40318.85
1245.00	39063.54
1246.00	38035.27
1247.00	37393.96
1248.00	37175.51
1249.00	37290.20
1250.00	37638.94
1251.00	38337.19
1252.00	39146.24
1253.00	40080.89
1254.00	40828.30
1255.00	41365.85
1256.00	41872.18
1257.00	42203.76
1258.00	42323.91
1259.00	41846.44
1260.00	41461.81
1261.00	41387.69
1262.00	41455.57
1263.00	41573.38
1264.00	41290.17
1265.00	41297.97
1266.00	41204.35
1267.00	41504.72
1268.00	41665.44
1269.00	41591.32
1270.00	41445.43
1271.00	41257.40
1272.00	41319.04
1273.00	41461.03
1274.00	41718.49
1275.00	41693.52
1276.00	41402.52
1277.00	41026.47
1278.00	40782.27
1279.00	40545.88
1280.00	40360.98
1281.00	40282.96
1282.00	40292.32
1283.00	40310.27
1284.00	40158.13
1285.00	40341.47
1286.00	40467.08
1287.00	40698.02
1288.00	40695.67
1289.00	40932.07
1290.00	40972.64
1291.00	41118.53
1292.00	40967.18
1293.00	41089.66
1294.00	41051.44
1295.00	40906.32
1296.00	40829.09
1297.00	40559.14
1298.00	40649.64
1299.00	40526.38
1300.00	40627.02
1301.00	40468.64
1302.00	40310.27
1303.00	40247.85
1304.00	40208.84
1305.00	40275.94
1306.00	40269.70
1307.00	40181.54
1308.00	40227.57
1309.00	40225.23
1310.00	40498.29
1311.00	40335.23
1312.00	40380.48
1313.00	40258.77
1314.00	40254.09
1315.00	40114.44
1316.00	39946.70
1317.00	39958.41
1318.00	39837.48
1319.00	39793.79
1320.00	39740.74
1321.00	39750.10
1322.00	39587.82
1323.00	39377.17
1324.00	39118.93
1325.00	39043.26
1326.00	38983.18
1327.00	38990.20
1328.00	38966.80
1329.00	38955.88
1330.00	38811.54
1331.00	38710.90
1332.00	38861.47
1333.00	39184.47
1334.00	39576.90
1335.00	39559.73
1336.00	39654.92
1337.00	39739.96
1338.00	39928.76
1339.00	39927.98
1340.00	39789.11
1341.00	39685.34
1342.00	39590.16
1343.00	39579.24
1344.00	39478.60
1345.00	39502.00
1346.00	39313.20
1347.00	39288.23
1348.00	39085.39
1349.00	39068.22
1350.00	38907.51
1351.00	38952.76
1352.00	38764.73
1353.00	38919.21
1354.00	38700.76
1355.00	38777.22
1356.00	38663.31
1357.00	38699.98
1358.00	38597.77
1359.00	38620.40
1360.00	38698.42
1361.00	38888.78
1362.00	38788.92
1363.00	38642.24
1364.00	38338.76
1365.00	38302.87
1366.00	38101.58
1367.00	37957.25
1368.00	37753.62
1369.00	37656.88
1370.00	37672.48
1371.00	37521.91
1372.00	37502.40
1373.00	37339.35
1374.00	37252.75
1375.00	37129.48
1376.00	37313.60
1377.00	37229.34
1378.00	37216.08
1379.00	36869.68
1380.00	36744.07
1381.00	36589.59
1382.00	36430.44
1383.00	36462.43
1384.00	36460.87
1385.00	36656.69
1386.00	36734.71
1387.00	36825.21
1388.00	36959.40
1389.00	36928.19
1390.00	36889.18
1391.00	36724.57
1392.00	36608.32
1393.00	36336.82
1394.00	36041.13
1395.00	35912.40
1396.00	36029.43
1397.00	36193.26
1398.00	36211.21
1399.00	35978.72
1400.00	35864.81
1401.00	35672.10
1402.00	35652.60
1403.00	35371.74
1404.00	35208.68
1405.00	34944.20
1406.00	34894.27
1407.00	34974.63
1408.00	35173.57
1409.00	35236.77
1410.00	35243.01
1411.00	35364.71
1412.00	35396.70
1413.00	35535.57
1414.00	35290.60
1415.00	35226.62
1416.00	34944.20
1417.00	34588.44
1418.00	34174.16
1419.00	33585.13
1420.00	33358.10
1421.00	33208.30
1422.00	33369.02
1423.00	33434.55
1424.00	33715.42
1425.00	33764.57
1426.00	33963.51
1427.00	33820.74
1428.00	33836.34
1429.00	33982.24
1430.00	34323.96
1431.00	34560.35
1432.00	34612.62
1433.00	34624.33
1434.00	34639.15
1435.00	34518.22
1436.00	34299.77
1437.00	34000.18
1438.00	33786.41
1439.00	33637.40
1440.00	33709.96
1441.00	33862.87
1442.00	33955.71
1443.00	33853.51
1444.00	33821.52
1445.00	33793.43
1446.00	34005.64
1447.00	34008.76
1448.00	34050.11
1449.00	33988.48
1450.00	34087.56
1451.00	33952.59
1452.00	33740.38
1453.00	33332.35
1454.00	33129.50
1455.00	32904.81
1456.00	32694.16
1457.00	32576.36
1458.00	32677.78
1459.00	32824.45
1460.00	32827.57
1461.00	32680.90
1462.00	32496.00
1463.00	32346.20
1464.00	32304.85
1465.00	32323.58
1466.00	32292.37
1467.00	32009.17
1468.00	31876.54
1469.00	31786.04
1470.00	31862.49
1471.00	31882.78
1472.00	31707.24
1473.00	31517.65
1474.00	31356.94
1475.00	31276.58
1476.00	31253.95
1477.00	31111.18
1478.00	31055.79
1479.00	30813.15
1480.00	30532.29
1481.00	30392.64
1482.00	30376.25
1483.00	30475.34
1484.00	30546.33
1485.00	30754.64
1486.00	30734.35
1487.00	30807.69
1488.00	30772.58
1489.00	31043.31
1490.00	30987.13
1491.00	30899.75
1492.00	30427.74
1493.00	30108.65
1494.00	29602.32
1495.00	29112.36
1496.00	28429.71
1497.00	28020.11
1498.00	27952.24
1499.00	28152.74
1500.00	28460.91
1501.00	28711.35
1502.00	29063.21
1503.00	29213.79
1504.00	29334.71
1505.00	29266.84
1506.00	29002.36
1507.00	28793.27
1508.00	28491.34
1509.00	28375.09
1510.00	28162.11
1511.00	28105.15
1512.00	28202.68
1513.00	28242.46
1514.00	28455.45
1515.00	28510.85
1516.00	28673.90
1517.00	28666.10
1518.00	28641.14
1519.00	28491.34
1520.00	28283.03
1521.00	28177.71
1522.00	28020.89
1523.00	28027.92
1524.00	27970.18
1525.00	28274.45
1526.00	28382.12
1527.00	28616.17
1528.00	28617.73
1529.00	28783.13
1530.00	28701.21
1531.00	28811.21
1532.00	28631.77
1533.00	28624.75
1534.00	28422.69
1535.00	28329.06
1536.00	28281.47
1537.00	28249.49
1538.00	28251.05
1539.00	28248.71
1540.00	28277.57
1541.00	28368.07
1542.00	28442.97
1543.00	28473.40
1544.00	28503.04
1545.00	28402.40
1546.00	28416.44
1547.00	28479.64
1548.00	28459.35
1549.00	28271.33
1550.00	27883.58
1551.00	27706.48
1552.00	27552.01
1553.00	27632.36
1554.00	27615.20
1555.00	27800.88
1556.00	27934.29
1557.00	28123.88
1558.00	28300.20
1559.00	28439.07
1560.00	28531.13
1561.00	28391.48
1562.00	28341.55
1563.00	28350.13
1564.00	28237.00
1565.00	28094.23
1566.00	27934.29
1567.00	27867.98
1568.00	27827.41
1569.00	27942.88
1570.00	28116.08
1571.00	28142.60
1572.00	27821.95
1573.00	27616.76
1574.00	27316.39
1575.00	27245.40
1576.00	26972.33
1577.00	26920.06
1578.00	26906.02
1579.00	27129.15
1580.00	27105.74
1581.00	26968.43
1582.00	26798.35
1583.00	26901.34
1584.00	26865.45
1585.00	26845.16
1586.00	26676.65
1587.00	26529.19
1588.00	26487.84
1589.00	26418.41
1590.00	26469.12
1591.00	26402.02
1592.00	26444.93
1593.00	26519.05
1594.00	26583.02
1595.00	26549.48
1596.00	26654.02
1597.00	26490.96
1598.00	26558.84
1599.00	26331.03
1600.00	26281.88
1601.00	26070.45
1602.00	26006.47
1603.00	25958.10
1604.00	25890.23
1605.00	25876.18
1606.00	26029.88
1607.00	26017.40
1608.00	26042.36
1609.00	26000.23
1610.00	26067.33
1611.00	25957.32
1612.00	25653.05
1613.00	25500.14
1614.00	25536.80
1615.00	25628.09
1616.00	25581.28
1617.00	25358.92
1618.00	25286.37
1619.00	25068.70
1620.00	25090.54
1621.00	24943.09
1622.00	25032.03
1623.00	24855.71
1624.00	24863.51
1625.00	24751.95
1626.00	24762.09
1627.00	24669.25
1628.00	24479.66
1629.00	24394.62
1630.00	24215.96
1631.00	24260.43
1632.00	24213.62
1633.00	24143.41
1634.00	24153.55
1635.00	24135.60
1636.00	24308.02
1637.00	24245.61
1638.00	24095.04
1639.00	23876.59
1640.00	23611.32
1641.00	23370.25
1642.00	23097.19
1643.00	23001.22
1644.00	22904.48
1645.00	23017.61
1646.00	23350.74
1647.00	23770.48
1648.00	24124.68
1649.00	24230.01
1650.00	24297.88
1651.00	24311.92
1652.00	24335.33
1653.00	24331.43
1654.00	24262.77
1655.00	24031.84
1656.00	23681.54
1657.00	23458.41
1658.00	23296.13
1659.00	23417.84
1660.00	23484.94
1661.00	23651.11
1662.00	23734.59
1663.00	23876.59
1664.00	23935.10
1665.00	23928.08
1666.00	23853.96
1667.00	23842.26
1668.00	23724.45
1669.00	23641.75
1670.00	23558.27
1671.00	23576.22
1672.00	23552.81
1673.00	23595.72
1674.00	23571.54
1675.00	23376.49
1676.00	23166.62
1677.00	23000.44
1678.00	22860.79
1679.00	22754.69
1680.00	22625.96
1681.00	22530.00
1682.00	22329.49
1683.00	22133.67
1684.00	21798.19
1685.00	21303.56
1686.00	20599.84
1687.00	19960.87
1688.00	19176.01
1689.00	18467.61
1690.00	18011.98
1691.00	18072.84
1692.00	18566.69
1693.00	19147.92
1694.00	19807.95
1695.00	20321.31
1696.00	20850.27
1697.00	21138.94
1698.00	21451.79
1699.00	21674.92
1700.00	22004.94
1701.00	22123.52
1702.00	22195.30
1703.00	22136.01
1704.00	22185.16
1705.00	22298.28
1706.00	22424.67
1707.00	22443.40
1708.00	22151.61
1709.00	21923.02
1710.00	21862.94
1711.00	21837.20
1712.00	21850.46
1713.00	21788.83
1714.00	21875.43
1715.00	21953.44
1716.00	22050.19
1717.00	22082.17
1718.00	22072.81
1719.00	21981.53
1720.00	22043.17
1721.00	21944.86
1722.00	21940.18
1723.00	21893.37
1724.00	21930.04
1725.00	22019.76
1726.00	21967.49
1727.00	21951.10
1728.00	21728.75
1729.00	21626.55
1730.00	21600.80
1731.00	21681.94
1732.00	21704.57
1733.00	21507.96
1734.00	21454.91
1735.00	21456.47
1736.00	21555.55
1737.00	21386.26
1738.00	21092.13
1739.00	20900.20
1740.00	20761.33
1741.00	20853.39
1742.00	20872.12
1743.00	20923.61
1744.00	20876.02
1745.00	20837.79
1746.00	20962.62
1747.00	20909.57
1748.00	20806.58
1749.00	20714.52
1750.00	20696.58
1751.00	20687.22
1752.00	20676.29
1753.00	20675.51
1754.00	20690.34
1755.00	20724.66
1756.00	20717.64
1757.00	20649.77
1758.00	20401.67
1759.00	20255.78
1760.00	20146.55
1761.00	20109.88
1762.00	20027.96
1763.00	19988.96
1764.00	19956.19
1765.00	19912.50
1766.00	19945.27
1767.00	19957.75
1768.00	19926.54
1769.00	19823.56
1770.00	19659.72
1771.00	19689.37
1772.00	19708.09
1773.00	19742.42
1774.00	19716.67
1775.00	19694.05
1776.00	19745.54
1777.00	19579.36
1778.00	19528.65
1779.00	19466.24
1780.00	19583.26
1781.00	19554.40
1782.00	19481.84
1783.00	19424.89
1784.00	19323.46
1785.00	19228.28
1786.00	19087.07
1787.00	18952.88
1788.00	18870.18
1789.00	18897.49
1790.00	18806.20
1791.00	18793.72
1792.00	18682.16
1793.00	18817.13
1794.00	18770.32
1795.00	18735.99
1796.00	18532.36
1797.00	18361.50
1798.00	18172.70
1799.00	18126.67
1800.00	18072.06
1801.00	18128.23
1802.00	18066.60
1803.00	18163.34
1804.00	18109.50
1805.00	18239.79
1806.00	18187.52
1807.00	18217.17
1808.00	18086.88
1809.00	18009.64
1810.00	17992.48
1811.00	18031.49
1812.00	17987.02
1813.00	17870.77
1814.00	17686.65
1815.00	17644.52
1816.00	17600.83
1817.00	17602.39
1818.00	17558.70
1819.00	17436.99
1820.00	17328.55
1821.00	17345.71
1822.00	17328.55
1823.00	17322.30
1824.00	17192.02
1825.00	17219.32
1826.00	17164.71
1827.00	17131.16
1828.00	17142.08
1829.00	17156.91
1830.00	17008.67
1831.00	16914.27
1832.00	16784.76
1833.00	16804.27
1834.00	16644.33
1835.00	16594.40
1836.00	16496.10
1837.00	16451.63
1838.00	16346.30
1839.00	16322.12
1840.00	16332.26
1841.00	16365.81
1842.00	16353.32
1843.00	16188.71
1844.00	16104.45
1845.00	16030.33
1846.00	16031.11
1847.00	15955.43
1848.00	15866.49
1849.00	15837.62
1850.00	15825.92
1851.00	15814.22
1852.00	15824.36
1853.00	15827.48
1854.00	15753.37
1855.00	15537.26
1856.00	15494.35
1857.00	15510.73
1858.00	15607.47
1859.00	15484.98
1860.00	15369.52
1861.00	15225.97
1862.00	15201.00
1863.00	15134.68
1864.00	15108.16
1865.00	15023.90
1866.00	15021.56
1867.00	15007.52
1868.00	14982.55
1869.00	14928.72
1870.00	14904.53
1871.00	14844.46
1872.00	14906.87
1873.00	14815.59
1874.00	14786.72
1875.00	14627.57
1876.00	14601.82
1877.00	14558.13
1878.00	14374.79
1879.00	14333.44
1880.00	14239.04
1881.00	14313.94
1882.00	14258.54
1883.00	14153.22
1884.00	14045.55
1885.00	13813.06
1886.00	13760.01
1887.00	13564.96
1888.00	13535.32
1889.00	13446.38
1890.00	13503.33
1891.00	13560.28
1892.00	13636.74
1893.00	13582.13
1894.00	13529.08
1895.00	13440.92
1896.00	13433.11
1897.00	13359.00
1898.00	13270.06
1899.00	13194.38
1900.00	13120.26
1901.00	13079.69
1902.00	13018.06
1903.00	12784.79
1904.00	12381.43
1905.00	11782.26
1906.00	10988.82
1907.00	10067.42
1908.00	9181.92
1909.00	8544.52
1910.00	8131.02
1911.00	7940.66
1912.00	7971.08
1913.00	8241.03
1914.00	8642.04
1915.00	9100.00
1916.00	9542.36
1917.00	9916.85
1918.00	10124.38
1919.00	10194.59
1920.00	10106.43
1921.00	9965.22
1922.00	9763.15
1923.00	9620.38
1924.00	9538.46
1925.00	9452.64
1926.00	9473.71
1927.00	9397.25
1928.00	9469.81
1929.00	9529.10
1930.00	9712.44
1931.00	9872.38
1932.00	9898.91
1933.00	9936.35
1934.00	9882.52
1935.00	10030.76
1936.00	10104.87
1937.00	10196.15
1938.00	10165.73
1939.00	10132.96
1940.00	10161.83
1941.00	10153.24
1942.00	10143.88
1943.00	10134.52
1944.00	10186.79
1945.00	10305.38
1946.00	10308.50
1947.00	10219.56
1948.00	10147.00
1949.00	10171.19
1950.00	10145.44
1951.00	10072.89
1952.00	9903.59
1953.00	9866.14
1954.00	9840.39
1955.00	9789.68
1956.00	9763.15
1957.00	9668.75
1958.00	9613.36
1959.00	9488.53
1960.00	9410.51
1961.00	9356.68
1962.00	9350.44
1963.00	9266.18
1964.00	9288.81
1965.00	9246.68
1966.00	9263.84
1967.00	9190.50
1968.00	9177.24
1969.00	9164.76
1970.00	9174.90
1971.00	9085.18
1972.00	9122.63
1973.00	9114.83
1974.00	9210.79
1975.00	9166.32
1976.00	9133.55
1977.00	9037.59
1978.00	9014.96
1979.00	9027.45
1980.00	9067.24
1981.00	9170.22
1982.00	9240.44
1983.00	9281.78
1984.00	9224.05
1985.00	9139.79
1986.00	9040.71
1987.00	8951.77
1988.00	8894.04
1989.00	8807.44
1990.00	8715.37
1991.00	8627.99
1992.00	8542.96
1993.00	8497.71
1994.00	8433.73
1995.00	8396.28
1996.00	8311.24
1997.00	8244.15
1998.00	8190.31
1999.00	8152.09
2000.00	8148.97
2001.00	8110.74
2002.00	8125.56
2003.00	8103.71
2004.00	8052.22
2005.00	7918.03
2006.00	7838.45
2007.00	7840.01
2008.00	7811.93
2009.00	7769.02
2010.00	7712.07
2011.00	7691.00
2012.00	7651.21
2013.00	7632.49
2014.00	7584.90
2015.00	7509.22
2016.00	7506.10
2017.00	7511.56
2018.00	7476.45
2019.00	7364.11
2020.00	7291.55
2021.00	7330.56
2022.00	7323.54
2023.00	7292.33
2024.00	7165.16
2025.00	7109.77
2026.00	7086.36
2027.00	7089.48
2028.00	7149.56
2029.00	7199.49
2030.00	7260.34
2031.00	7218.21
2032.00	7190.13
2033.00	7140.97
2034.00	7115.23
2035.00	7074.66
2036.00	7009.90
2037.00	6983.38
2038.00	6942.03
2039.00	6984.16
2040.00	6961.53
2041.00	6957.63
2042.00	6876.49
2043.00	6825.78
2044.00	6722.80
2045.00	6759.47
2046.00	6735.28
2047.00	6703.29
>>>>>End Processed Spectral Data<<<<<
