SpectraSuite Data File
++++++++++++++++++++++++++++++++++++
Date: Thu Nov 16 13:32:52 EST 2017
User: cheriyan
Dark Spectrum Present: No
Reference Spectrum Present: No
Number of Sampled Component Spectra: 1
Spectrometers: USB2+H05261
Integration Time (usec): 90000 (USB2+H05261)
Spectra Averaged: 1 (USB2+H05261)
Boxcar Smoothing: 1 (USB2+H05261)
Correct for Electrical Dark: No (USB2+H05261)
Strobe/Lamp Enabled: No (USB2+H05261)
Correct for Detector Non-linearity: No (USB2+H05261)
Correct for Stray Light: No (USB2+H05261)
Number of Pixels in Processed Spectrum: 2048
>>>>>Begin Processed Spectral Data<<<<<
0.00	367.46
1.00	367.46
2.00	351.08
3.00	310.51
4.00	280.08
5.00	263.70
6.00	276.96
7.00	276.96
8.00	267.60
9.00	252.78
10.00	249.66
11.00	273.06
12.00	299.59
13.00	285.55
14.00	282.42
15.00	245.76
16.00	252.00
17.00	262.14
18.00	287.89
19.00	297.25
20.00	291.01
21.00	308.95
22.00	338.60
23.00	762.23
24.00	2380.32
25.00	4175.52
26.00	5570.47
27.00	5717.93
28.00	5556.43
29.00	5369.97
30.00	5121.09
31.00	5093.01
32.00	5074.28
33.00	5175.70
34.00	5115.63
35.00	4996.26
36.00	4806.68
37.00	4656.89
38.00	4599.93
39.00	4649.08
40.00	4749.73
41.00	4862.07
42.00	4862.07
43.00	4877.68
44.00	4908.10
45.00	5115.63
46.00	5356.71
47.00	5629.77
48.00	5766.30
49.00	5792.05
50.00	5745.24
51.00	5709.35
52.00	5764.74
53.00	5804.53
54.00	5930.14
55.00	6144.69
56.00	6433.35
57.00	6763.37
58.00	6991.18
59.00	7151.12
60.00	7265.80
61.00	7346.16
62.00	7245.52
63.00	7046.57
64.00	6683.79
65.00	6466.90
66.00	6242.99
67.00	6076.03
68.00	5969.93
69.00	5971.49
70.00	6168.09
71.00	6404.49
72.00	6641.66
73.00	6872.59
74.00	6990.40
75.00	6956.85
76.00	6744.64
77.00	6467.68
78.00	6197.74
79.00	5894.25
80.00	5650.83
81.00	5365.29
82.00	5124.99
83.00	4887.04
84.00	4702.92
85.00	4596.03
86.00	4467.30
87.00	4435.32
88.00	4471.98
89.00	4655.33
90.00	4879.24
91.00	5188.19
92.00	5593.88
93.00	5994.11
94.00	6303.84
95.00	6484.84
96.00	6552.72
97.00	6498.11
98.00	6357.68
99.00	6191.50
100.00	6136.88
101.00	6169.65
102.00	6329.59
103.00	6472.36
104.00	6569.10
105.00	6609.67
106.00	6562.86
107.00	6537.90
108.00	6487.96
109.00	6528.53
110.00	6494.99
111.00	6573.78
112.00	6579.25
113.00	6630.74
114.00	6589.39
115.00	6733.72
116.00	6991.18
117.00	7378.15
118.00	7759.66
119.00	8074.85
120.00	8326.85
121.00	8383.02
122.00	8423.59
123.00	8468.06
124.00	8596.01
125.00	8762.19
126.00	9004.04
127.00	9352.00
128.00	9599.32
129.00	9576.69
130.00	9357.46
131.00	8986.88
132.00	8627.21
133.00	8135.70
134.00	7606.74
135.00	7026.29
136.00	6275.76
137.00	5541.61
138.00	4874.56
139.00	4649.08
140.00	4809.02
141.00	5280.25
142.00	5980.85
143.00	6820.32
144.00	7660.57
145.00	8447.77
146.00	9004.04
147.00	9488.53
148.00	9732.73
149.00	9902.81
150.00	9964.44
151.00	9777.20
152.00	9388.67
153.00	8614.73
154.00	7756.54
155.00	6822.66
156.00	6132.98
157.00	5811.55
158.00	6074.47
159.00	6790.67
160.00	7828.31
161.00	9075.82
162.00	10169.63
163.00	11190.88
164.00	11779.92
165.00	12212.14
166.00	12530.45
167.00	12808.97
168.00	13053.95
169.00	13266.16
170.00	13507.23
171.00	13736.60
172.00	13826.32
173.00	13902.00
174.00	14043.21
175.00	14104.07
176.00	14088.46
177.00	14182.09
178.00	14492.60
179.00	14809.35
180.00	15056.67
181.00	15131.56
182.00	15231.43
183.00	15339.87
184.00	15477.96
185.00	15484.20
186.00	15418.67
187.00	15429.59
188.00	15339.09
189.00	15108.16
190.00	14854.60
191.00	14936.52
192.00	15282.14
193.00	15625.42
194.00	15807.20
195.00	15559.10
196.00	15147.95
197.00	14902.19
198.00	15040.28
199.00	15291.50
200.00	15390.58
201.00	15376.54
202.00	15359.38
203.00	15359.38
204.00	15195.54
205.00	15119.86
206.00	14907.65
207.00	15034.04
208.00	15126.10
209.00	15326.61
210.00	15470.94
211.00	15396.04
212.00	15355.47
213.00	15354.69
214.00	15702.65
215.00	15985.86
216.00	16343.18
217.00	16646.67
218.00	17060.95
219.00	17325.43
220.00	17422.17
221.00	17289.54
222.00	16910.37
223.00	16404.03
224.00	15903.94
225.00	15388.24
226.00	15209.58
227.00	15293.06
228.00	15747.12
229.00	16221.47
230.00	16781.64
231.00	17356.63
232.00	17887.93
233.00	18267.88
234.00	18420.80
235.00	18491.79
236.00	18578.39
237.00	18634.57
238.00	18508.96
239.00	18294.41
240.00	18156.32
241.00	18086.88
242.00	18119.65
243.00	18237.45
244.00	18547.19
245.00	18832.73
246.00	18965.36
247.00	18781.24
248.00	18724.29
249.00	18722.73
250.00	18983.30
251.00	19045.72
252.00	19036.36
253.00	18866.28
254.00	19005.93
255.00	19339.07
256.00	19822.00
257.00	20189.46
258.00	20421.17
259.00	20501.53
260.00	20386.85
261.00	20072.43
262.00	19701.85
263.00	19455.31
264.00	19393.68
265.00	19396.02
266.00	19424.89
267.00	19557.52
268.00	19711.21
269.00	19662.84
270.00	19616.03
271.00	19800.15
272.00	20202.72
273.00	20489.83
274.00	20367.34
275.00	20130.17
276.00	19844.62
277.00	19690.93
278.00	19571.56
279.00	19752.56
280.00	20318.19
281.00	20916.59
282.00	21453.35
283.00	21643.71
284.00	21685.84
285.00	21592.22
286.00	21563.36
287.00	21397.18
288.00	21090.57
289.00	20586.57
290.00	20049.81
291.00	19464.68
292.00	19163.53
293.00	19436.59
294.00	19899.23
295.00	20351.74
296.00	20519.48
297.00	20510.89
298.00	20620.90
299.00	20556.14
300.00	20656.01
301.00	20445.36
302.00	20290.10
303.00	20319.75
304.00	20179.32
305.00	20222.23
306.00	20095.84
307.00	20144.21
308.00	19896.89
309.00	19745.54
310.00	19906.26
311.00	20341.60
312.00	20433.66
313.00	20301.81
314.00	19672.20
315.00	19144.80
316.00	18720.38
317.00	18750.03
318.00	19172.11
319.00	19383.54
320.00	19867.25
321.00	19857.10
322.00	19910.16
323.00	19576.24
324.00	19306.30
325.00	19168.99
326.00	19005.15
327.00	18887.34
328.00	18395.05
329.00	17714.73
330.00	16851.08
331.00	15969.48
332.00	15246.25
333.00	14743.81
334.00	14603.38
335.00	14860.06
336.00	15531.01
337.00	16681.00
338.00	18317.03
339.00	20213.65
340.00	21738.90
341.00	22385.66
342.00	22002.60
343.00	21377.67
344.00	20806.58
345.00	20947.79
346.00	21326.18
347.00	21945.64
348.00	22339.63
349.00	22237.43
350.00	21506.40
351.00	20438.34
352.00	19787.67
353.00	19779.87
354.00	20220.67
355.00	20825.31
356.00	21484.56
357.00	21975.29
358.00	22189.06
359.00	22362.26
360.00	22522.20
361.00	23040.23
362.00	23423.30
363.00	23896.09
364.00	24109.08
365.00	24279.16
366.00	24222.98
367.00	24027.16
368.00	23581.68
369.00	23185.35
370.00	22903.70
371.00	22771.07
372.00	22675.89
373.00	22338.07
374.00	21846.56
375.00	21461.15
376.00	21209.93
377.00	21211.50
378.00	21547.75
379.00	22068.91
380.00	22738.30
381.00	23375.71
382.00	23807.15
383.00	24144.19
384.00	23999.85
385.00	23663.60
386.00	23578.56
387.00	23729.13
388.00	24377.46
389.00	24886.14
390.00	25493.12
391.00	25894.91
392.00	26249.11
393.00	26536.99
394.00	26867.01
395.00	27135.39
396.00	27261.78
397.00	27435.76
398.00	27566.83
399.00	27889.82
400.00	27722.87
401.00	27604.28
402.00	27374.91
403.00	27716.62
404.00	27975.64
405.00	28097.35
406.00	28184.73
407.00	28146.50
408.00	27942.10
409.00	27813.37
410.00	27855.50
411.00	28124.66
412.00	27752.51
413.00	27029.29
414.00	26274.85
415.00	25803.63
416.00	25852.78
417.00	25903.49
418.00	26398.12
419.00	26682.89
420.00	27126.81
421.00	27534.84
422.00	27996.71
423.00	28499.14
424.00	28758.94
425.00	29009.38
426.00	28869.73
427.00	28607.59
428.00	28489.00
429.00	28453.11
430.00	28603.69
431.00	28481.20
432.00	28433.61
433.00	28361.05
434.00	28442.19
435.00	28574.82
436.00	28686.39
437.00	28834.62
438.00	29247.33
439.00	29702.96
440.00	30352.85
441.00	30667.26
442.00	30887.27
443.00	30747.62
444.00	30628.25
445.00	30564.28
446.00	30384.83
447.00	30263.13
448.00	29983.04
449.00	29899.56
450.00	29642.88
451.00	29244.99
452.00	28673.90
453.00	28050.54
454.00	27638.61
455.00	27543.42
456.00	27854.72
457.00	28462.47
458.00	29055.41
459.00	29485.29
460.00	29697.50
461.00	29772.39
462.00	29782.54
463.00	29509.47
464.00	29249.67
465.00	29016.40
466.00	29098.32
467.00	29525.08
468.00	29869.92
469.00	30300.58
470.00	30569.74
471.00	30937.20
472.00	30989.47
473.00	30920.82
474.00	31028.48
475.00	31361.62
476.00	31549.64
477.00	31812.56
478.00	31866.39
479.00	32038.03
480.00	31541.84
481.00	31209.48
482.00	30539.31
483.00	30192.13
484.00	30235.82
485.00	30611.87
486.00	30995.71
487.00	31006.64
488.00	30916.14
489.00	30902.87
490.00	30661.02
491.00	30593.92
492.00	30710.95
493.00	30970.75
494.00	31217.29
495.00	31209.48
496.00	31630.78
497.00	31933.49
498.00	32185.49
499.00	32293.15
500.00	32037.25
501.00	32301.73
502.00	32173.78
503.00	32480.39
504.00	32388.33
505.00	32558.41
506.00	32669.20
507.00	32840.06
508.00	32797.93
509.00	32862.68
510.00	32818.21
511.00	32767.50
512.00	32592.74
513.00	32552.95
514.00	32297.83
515.00	32057.54
516.00	31776.67
517.00	31674.47
518.00	31519.21
519.00	31264.10
520.00	31555.10
521.00	31591.77
522.00	31838.31
523.00	31891.36
524.00	32403.16
525.00	32672.32
526.00	32427.34
527.00	31976.40
528.00	31363.96
529.00	30938.76
530.00	30735.13
531.00	30771.80
532.00	31066.71
533.00	31290.62
534.00	31614.40
535.00	31841.43
536.00	31670.57
537.00	31476.30
538.00	31498.15
539.00	31796.18
540.00	31897.60
541.00	31788.38
542.00	31811.78
543.00	32089.52
544.00	32137.90
545.00	31920.23
546.00	31344.45
547.00	31117.42
548.00	30899.75
549.00	30955.15
550.00	30826.42
551.00	31001.96
552.00	31065.15
553.00	31236.01
554.00	31531.70
555.00	32177.68
556.00	32712.89
557.00	33212.20
558.00	33694.35
559.00	34143.73
560.00	34375.45
561.00	34131.25
562.00	33846.49
563.00	33383.84
564.00	33075.67
565.00	33063.97
566.00	33305.82
567.00	33438.45
568.00	33624.14
569.00	33549.24
570.00	33987.70
571.00	34280.27
572.00	34749.15
573.00	34742.91
574.00	34718.73
575.00	34722.63
576.00	34847.46
577.00	34706.24
578.00	34773.34
579.00	34431.62
580.00	34607.16
581.00	34462.83
582.00	34646.95
583.00	34494.04
584.00	34835.75
585.00	35198.54
586.00	35920.20
587.00	36136.31
588.00	36533.42
589.00	36839.25
590.00	37265.23
591.00	37754.40
592.00	37943.98
593.00	38036.83
594.00	37936.18
595.00	37815.26
596.00	37951.79
597.00	38124.21
598.00	38641.46
599.00	39173.55
600.00	39693.93
601.00	39785.99
602.00	39800.81
603.00	39744.64
604.00	40009.90
605.00	40331.33
606.00	40469.42
607.00	40758.09
608.00	40876.68
609.00	41244.92
610.00	41349.46
611.00	41635.01
612.00	42043.82
613.00	42545.48
614.00	42755.35
615.00	42706.19
616.00	42573.56
617.00	42525.19
618.00	42647.68
619.00	42678.11
620.00	42819.32
621.00	43053.37
622.00	43303.81
623.00	43735.25
624.00	43714.19
625.00	43577.65
626.00	43288.21
627.00	43431.76
628.00	43637.73
629.00	44038.74
630.00	44506.07
631.00	44403.08
632.00	43527.72
633.00	42504.91
634.00	41434.50
635.00	39854.64
636.00	38078.18
637.00	37195.79
638.00	37699.79
639.00	38687.50
640.00	39952.94
641.00	40976.54
642.00	41917.43
643.00	42628.18
644.00	43579.21
645.00	44520.89
646.00	45487.53
647.00	45972.80
648.00	46511.91
649.00	46729.58
650.00	46819.30
651.00	46600.07
652.00	46092.17
653.00	46138.98
654.00	46496.30
655.00	47614.30
656.00	48629.31
657.00	49492.19
658.00	49798.80
659.00	50022.71
660.00	50163.14
661.00	50266.13
662.00	50173.28
663.00	49925.19
664.00	49774.61
665.00	49680.21
666.00	49939.23
667.00	49909.58
668.00	49455.52
669.00	48574.70
670.00	48051.98
671.00	48082.41
672.00	48651.94
673.00	49647.44
674.00	50659.34
675.00	51391.92
676.00	51631.44
677.00	51455.90
678.00	51095.45
679.00	50820.05
680.00	50881.69
681.00	51279.58
682.00	51792.93
683.00	52414.74
684.00	53011.57
685.00	53380.60
686.00	53620.89
687.00	53600.61
688.00	53522.59
689.00	53134.06
690.00	52797.80
691.00	52605.10
692.00	52715.89
693.00	53049.02
694.00	53495.28
695.00	53796.43
696.00	53997.72
697.00	53922.82
698.00	54127.23
699.00	54297.31
700.00	54539.94
701.00	54557.89
702.00	54386.25
703.00	54030.49
704.00	53499.19
705.00	53024.84
706.00	52944.48
707.00	53134.84
708.00	53499.97
709.00	53889.27
710.00	54318.37
711.00	54628.88
712.00	54752.93
713.00	54757.61
714.00	54685.06
715.00	54506.40
716.00	54102.26
717.00	53769.91
718.00	53373.58
719.00	53268.25
720.00	53145.76
721.00	53076.33
722.00	52971.00
723.00	52870.36
724.00	52901.57
725.00	52741.63
726.00	52779.86
727.00	53024.06
728.00	53396.98
729.00	53809.70
730.00	53984.46
731.00	54252.06
732.00	54362.06
733.00	54570.37
734.00	54479.87
735.00	54290.29
736.00	53727.78
737.00	53286.20
738.00	52869.58
739.00	53030.30
740.00	53408.68
741.00	54048.43
742.00	54327.73
743.00	54490.01
744.00	54593.00
745.00	54964.36
746.00	55366.15
747.00	55767.16
748.00	56002.00
749.00	56111.22
750.00	56023.84
751.00	55824.12
752.00	55671.20
753.00	55423.89
754.00	55328.70
755.00	55221.04
756.00	55258.49
757.00	55060.32
758.00	54813.79
759.00	54398.73
760.00	54116.31
761.00	54065.59
762.00	54277.80
763.00	54657.75
764.00	55040.04
765.00	55399.70
766.00	55854.54
767.00	56191.58
768.00	56299.25
769.00	56151.01
770.00	55903.70
771.00	55746.10
772.00	55641.56
773.00	55641.56
774.00	55720.35
775.00	55682.90
776.00	55648.58
777.00	55632.19
778.00	55828.02
779.00	56054.27
780.00	56291.44
781.00	56534.86
782.00	56709.62
783.00	56735.37
784.00	56531.74
785.00	56055.05
786.00	55664.18
787.00	55434.81
788.00	55408.28
789.00	55496.44
790.00	55453.53
791.00	55500.34
792.00	55423.89
793.00	55291.26
794.00	55108.69
795.00	54834.07
796.00	54828.61
797.00	54914.43
798.00	55119.62
799.00	55229.62
800.00	55217.92
801.00	55325.58
802.00	55427.79
803.00	55675.10
804.00	55817.10
805.00	56041.79
806.00	56015.26
807.00	55757.80
808.00	55110.25
809.00	54142.05
810.00	52820.43
811.00	51348.23
812.00	50195.91
813.00	49645.88
814.00	50133.49
815.00	51373.20
816.00	52874.26
817.00	53712.95
818.00	53778.49
819.00	53050.58
820.00	52364.03
821.00	51985.64
822.00	52307.07
823.00	52987.39
824.00	53563.94
825.00	54113.97
826.00	54376.89
827.00	54915.99
828.00	55314.66
829.00	55729.72
830.00	55884.97
831.00	55863.91
832.00	55775.75
833.00	55505.80
834.00	55396.58
835.00	55432.47
836.00	55669.64
837.00	55980.93
838.00	56148.67
839.00	56201.72
840.00	56293.78
841.00	56322.65
842.00	56394.43
843.00	56173.64
844.00	55873.27
845.00	55501.90
846.00	55173.45
847.00	54986.99
848.00	55037.70
849.00	55320.90
850.00	55736.74
851.00	56212.65
852.00	56593.37
853.00	56927.29
854.00	57141.06
855.00	57221.42
856.00	57167.58
857.00	56958.50
858.00	56754.87
859.00	56583.23
860.00	56512.23
861.00	56525.50
862.00	56732.25
863.00	56810.26
864.00	56630.82
865.00	55984.83
866.00	55139.12
867.00	54200.57
868.00	53343.93
869.00	52712.77
870.00	52485.73
871.00	52661.27
872.00	53133.28
873.00	53840.12
874.00	54522.00
875.00	55119.62
876.00	55495.66
877.00	55700.85
878.00	55807.73
879.00	56083.92
880.00	56405.35
881.00	56779.84
882.00	56921.83
883.00	57020.91
884.00	56886.72
885.00	56590.25
886.00	56225.91
887.00	55964.55
888.00	55891.21
889.00	55931.78
890.00	56183.00
891.00	56432.66
892.00	56786.08
893.00	56892.18
894.00	57041.98
895.00	56992.82
896.00	56872.68
897.00	56679.19
898.00	56497.41
899.00	56371.02
900.00	56161.15
901.00	55833.48
902.00	55330.26
903.00	54672.57
904.00	54144.39
905.00	54078.08
906.00	54341.00
907.00	54784.92
908.00	55098.55
909.00	55608.79
910.00	55749.22
911.00	55759.36
912.00	55412.18
913.00	55399.70
914.00	55378.64
915.00	55519.85
916.00	55569.00
917.00	55697.73
918.00	55924.76
919.00	56087.82
920.00	56410.03
921.00	56594.15
922.00	56802.46
923.00	56689.34
924.00	56381.16
925.00	55977.81
926.00	55604.11
927.00	55226.50
928.00	54670.23
929.00	54411.21
930.00	54361.28
931.00	54709.24
932.00	55104.01
933.00	55416.08
934.00	55629.85
935.00	55566.66
936.00	55593.18
937.00	55625.95
938.00	55523.75
939.00	55497.22
940.00	55288.13
941.00	55250.69
942.00	54939.39
943.00	54657.75
944.00	54407.31
945.00	54217.73
946.00	54094.46
947.00	53844.80
948.00	53758.98
949.00	53532.73
950.00	53467.98
951.00	53169.95
952.00	53134.84
953.00	53160.59
954.00	53495.28
955.00	53777.71
956.00	54093.68
957.00	54309.01
958.00	54573.49
959.00	54603.14
960.00	54431.50
961.00	54159.22
962.00	54016.44
963.00	53951.69
964.00	54046.87
965.00	54013.32
966.00	54107.72
967.00	54140.49
968.00	54366.74
969.00	54585.19
970.00	54892.58
971.00	55159.41
972.00	55316.22
973.00	55088.41
974.00	54707.68
975.00	54497.81
976.00	54425.26
977.00	54589.09
978.00	54428.38
979.00	54344.12
980.00	54227.87
981.00	54443.20
982.00	54571.93
983.00	54522.78
984.00	54343.34
985.00	54167.02
986.00	54041.41
987.00	53969.63
988.00	54185.74
989.00	54206.81
990.00	54160.00
991.00	53625.57
992.00	53400.88
993.00	53137.18
994.00	53265.13
995.00	53306.48
996.00	53510.11
997.00	53870.55
998.00	54244.26
999.00	54540.72
1000.00	54500.15
1001.00	54309.79
1002.00	54105.38
1003.00	53957.15
1004.00	54043.75
1005.00	54051.55
1006.00	54085.10
1007.00	53979.78
1008.00	53912.68
1009.00	53711.39
1010.00	53574.86
1011.00	53453.15
1012.00	53587.35
1013.00	53488.26
1014.00	53469.54
1015.00	53400.10
1016.00	53592.81
1017.00	53871.33
1018.00	54071.84
1019.00	54113.19
1020.00	53948.57
1021.00	53755.08
1022.00	53521.81
1023.00	53200.38
1024.00	53030.30
1025.00	53024.84
1026.00	53257.33
1027.00	53340.03
1028.00	53480.46
1029.00	53432.87
1030.00	53525.71
1031.00	53742.60
1032.00	53952.47
1033.00	54068.72
1034.00	54052.33
1035.00	54063.25
1036.00	54056.23
1037.00	54023.47
1038.00	53944.67
1039.00	53723.88
1040.00	53440.67
1041.00	53296.34
1042.00	53124.70
1043.00	53119.24
1044.00	52986.61
1045.00	52949.94
1046.00	52667.51
1047.00	52459.99
1048.00	52264.94
1049.00	52173.66
1050.00	52165.86
1051.00	52281.33
1052.00	52421.76
1053.00	52603.54
1054.00	52664.39
1055.00	52523.18
1056.00	52250.90
1057.00	51935.71
1058.00	51579.95
1059.00	51184.40
1060.00	50896.51
1061.00	50814.59
1062.00	50912.11
1063.00	51059.57
1064.00	51086.09
1065.00	51087.65
1066.00	51017.44
1067.00	51071.27
1068.00	51109.50
1069.00	51415.33
1070.00	51754.71
1071.00	52181.46
1072.00	52417.86
1073.00	52640.99
1074.00	52440.48
1075.00	52051.95
1076.00	51473.06
1077.00	51196.10
1078.00	51087.65
1079.00	51036.16
1080.00	50965.95
1081.00	50988.57
1082.00	51178.15
1083.00	51413.77
1084.00	51520.65
1085.00	51661.08
1086.00	51696.97
1087.00	51743.78
1088.00	51524.55
1089.00	51333.41
1090.00	51114.96
1091.00	50968.29
1092.00	50920.70
1093.00	50919.13
1094.00	51077.51
1095.00	50914.45
1096.00	50886.37
1097.00	50709.27
1098.00	50677.28
1099.00	50335.56
1100.00	50078.10
1101.00	49836.25
1102.00	49564.74
1103.00	49416.51
1104.00	49324.45
1105.00	49535.88
1106.00	49615.46
1107.00	49939.23
1108.00	50117.11
1109.00	50365.99
1110.00	50483.80
1111.00	50667.14
1112.00	50717.85
1113.00	50556.35
1114.00	50359.75
1115.00	50124.13
1116.00	49911.14
1117.00	49436.80
1118.00	48938.26
1119.00	48494.34
1120.00	48363.27
1121.00	48301.64
1122.00	48443.63
1123.00	48477.18
1124.00	48780.67
1125.00	48803.29
1126.00	48898.47
1127.00	48797.05
1128.00	48660.52
1129.00	48366.39
1130.00	48030.91
1131.00	47494.93
1132.00	47089.24
1133.00	46596.17
1134.00	46542.33
1135.00	46598.51
1136.00	46914.48
1137.00	47192.22
1138.00	47445.00
1139.00	47702.46
1140.00	48043.40
1141.00	48306.32
1142.00	48452.21
1143.00	48357.81
1144.00	48299.30
1145.00	48140.92
1146.00	48208.79
1147.00	48126.10
1148.00	48197.87
1149.00	48002.05
1150.00	47923.25
1151.00	47778.92
1152.00	47705.58
1153.00	47588.55
1154.00	47375.56
1155.00	47157.89
1156.00	46883.27
1157.00	46783.41
1158.00	46525.95
1159.00	46474.46
1160.00	46273.95
1161.00	46121.82
1162.00	45833.15
1163.00	45666.97
1164.00	45774.64
1165.00	45884.64
1166.00	45919.75
1167.00	46028.20
1168.00	46203.74
1169.00	46429.99
1170.00	46171.75
1171.00	46077.35
1172.00	45826.91
1173.00	45943.16
1174.00	45831.59
1175.00	45890.88
1176.00	45617.04
1177.00	45132.55
1178.00	44636.36
1179.00	44319.60
1180.00	44410.88
1181.00	44478.76
1182.00	44757.28
1183.00	44867.29
1184.00	45134.11
1185.00	45242.56
1186.00	45230.85
1187.00	45281.56
1188.00	45419.66
1189.00	45535.12
1190.00	45443.84
1191.00	45460.23
1192.00	45329.16
1193.00	45264.40
1194.00	45250.36
1195.00	45483.63
1196.00	45464.91
1197.00	45422.78
1198.00	45409.51
1199.00	45570.23
1200.00	45622.50
1201.00	45688.82
1202.00	45751.23
1203.00	45886.20
1204.00	45888.54
1205.00	46004.01
1206.00	45852.66
1207.00	46028.98
1208.00	46035.22
1209.00	46114.01
1210.00	46016.49
1211.00	45817.55
1212.00	45876.84
1213.00	45793.36
1214.00	45755.91
1215.00	45654.49
1216.00	45558.53
1217.00	45497.67
1218.00	45428.24
1219.00	45348.66
1220.00	45201.99
1221.00	44797.85
1222.00	44623.87
1223.00	44316.48
1224.00	44012.21
1225.00	43537.08
1226.00	43341.26
1227.00	43407.58
1228.00	43452.05
1229.00	43693.12
1230.00	43741.49
1231.00	43956.04
1232.00	43921.71
1233.00	44137.04
1234.00	44006.75
1235.00	43975.55
1236.00	43839.79
1237.00	43801.57
1238.00	43739.93
1239.00	43461.41
1240.00	43263.24
1241.00	42809.96
1242.00	42149.15
1243.00	41084.98
1244.00	39906.13
1245.00	38810.76
1246.00	38033.71
1247.00	37486.80
1248.00	37106.85
1249.00	37269.13
1250.00	37580.42
1251.00	38343.44
1252.00	39037.80
1253.00	39977.13
1254.00	40726.88
1255.00	41190.31
1256.00	41618.63
1257.00	41840.20
1258.00	42022.76
1259.00	41649.05
1260.00	41415.78
1261.00	41122.43
1262.00	41322.16
1263.00	41392.37
1264.00	41455.57
1265.00	41237.12
1266.00	41047.54
1267.00	41120.09
1268.00	41408.76
1269.00	41476.63
1270.00	41243.36
1271.00	41007.75
1272.00	41106.05
1273.00	41289.39
1274.00	41443.87
1275.00	41386.13
1276.00	41083.42
1277.00	40721.42
1278.00	40380.48
1279.00	40294.66
1280.00	39962.31
1281.00	39895.21
1282.00	39722.79
1283.00	39832.02
1284.00	39733.71
1285.00	39974.01
1286.00	40268.92
1287.00	40519.35
1288.00	40678.51
1289.00	40804.90
1290.00	40953.91
1291.00	41062.36
1292.00	40929.73
1293.00	40800.22
1294.00	40729.22
1295.00	40620.00
1296.00	40751.85
1297.00	40623.12
1298.00	40717.52
1299.00	40465.52
1300.00	40279.06
1301.00	40172.95
1302.00	40114.44
1303.00	40068.41
1304.00	40114.44
1305.00	39995.07
1306.00	39978.69
1307.00	39672.08
1308.00	39873.37
1309.00	39896.77
1310.00	39987.27
1311.00	39961.53
1312.00	39977.91
1313.00	40020.04
1314.00	39857.76
1315.00	39913.16
1316.00	39910.81
1317.00	40051.25
1318.00	39929.54
1319.00	39793.01
1320.00	39484.06
1321.00	39315.54
1322.00	39222.70
1323.00	39207.87
1324.00	39164.96
1325.00	39115.81
1326.00	38995.67
1327.00	38882.54
1328.00	38480.75
1329.00	38433.94
1330.00	38403.51
1331.00	38663.31
1332.00	38703.88
1333.00	38896.58
1334.00	39095.53
1335.00	39308.52
1336.00	39458.31
1337.00	39656.48
1338.00	39666.62
1339.00	39636.19
1340.00	39429.44
1341.00	39413.84
1342.00	39214.12
1343.00	39310.08
1344.00	39081.49
1345.00	39147.80
1346.00	39025.31
1347.00	39213.34
1348.00	39134.54
1349.00	38988.64
1350.00	38743.67
1351.00	38799.84
1352.00	38742.89
1353.00	38927.79
1354.00	38701.54
1355.00	38707.78
1356.00	38494.01
1357.00	38468.26
1358.00	38419.89
1359.00	38347.34
1360.00	38382.45
1361.00	38433.16
1362.00	38450.32
1363.00	38195.20
1364.00	38022.78
1365.00	37916.68
1366.00	37880.01
1367.00	37598.37
1368.00	37411.12
1369.00	37446.23
1370.00	37429.85
1371.00	37360.41
1372.00	37156.78
1373.00	37025.71
1374.00	36944.58
1375.00	36976.56
1376.00	37224.66
1377.00	37144.30
1378.00	37040.54
1379.00	36777.62
1380.00	36736.27
1381.00	36707.40
1382.00	36530.30
1383.00	36348.52
1384.00	36223.69
1385.00	36460.09
1386.00	36646.55
1387.00	36777.62
1388.00	36730.81
1389.00	36767.48
1390.00	36701.16
1391.00	36439.02
1392.00	36181.56
1393.00	35843.74
1394.00	35832.04
1395.00	35754.80
1396.00	35892.90
1397.00	35750.90
1398.00	35964.67
1399.00	35793.81
1400.00	35913.18
1401.00	35519.19
1402.00	35493.44
1403.00	35121.30
1404.00	34827.95
1405.00	34589.22
1406.00	34618.86
1407.00	34901.29
1408.00	34955.12
1409.00	35144.70
1410.00	35148.60
1411.00	35209.46
1412.00	34997.25
1413.00	35037.82
1414.00	35001.15
1415.00	34963.70
1416.00	34797.52
1417.00	34448.00
1418.00	34155.44
1419.00	33549.24
1420.00	33292.56
1421.00	33092.83
1422.00	33120.14
1423.00	33235.61
1424.00	33295.68
1425.00	33586.69
1426.00	33670.95
1427.00	33744.28
1428.00	33730.24
1429.00	33761.45
1430.00	33959.61
1431.00	34101.61
1432.00	34390.27
1433.00	34384.81
1434.00	34437.08
1435.00	34315.37
1436.00	34243.60
1437.00	33963.51
1438.00	33834.78
1439.00	33687.33
1440.00	33842.59
1441.00	33795.00
1442.00	33971.32
1443.00	33784.85
1444.00	33688.11
1445.00	33645.98
1446.00	33699.81
1447.00	33939.33
1448.00	33869.11
1449.00	33900.32
1450.00	33757.55
1451.00	33767.69
1452.00	33626.48
1453.00	33297.24
1454.00	32858.78
1455.00	32710.55
1456.00	32580.26
1457.00	32551.39
1458.00	32610.68
1459.00	32721.47
1460.00	32898.57
1461.00	32794.81
1462.00	32678.56
1463.00	32319.68
1464.00	32046.62
1465.00	31893.70
1466.00	31857.81
1467.00	31773.55
1468.00	31676.81
1469.00	31739.22
1470.00	31874.20
1471.00	31679.15
1472.00	31502.83
1473.00	31126.00
1474.00	30999.62
1475.00	30822.51
1476.00	30797.55
1477.00	30896.63
1478.00	30860.74
1479.00	30836.56
1480.00	30671.94
1481.00	30537.75
1482.00	30347.39
1483.00	30258.45
1484.00	30249.86
1485.00	30328.66
1486.00	30521.37
1487.00	30641.51
1488.00	30705.49
1489.00	30625.13
1490.00	30559.59
1491.00	30551.01
1492.00	30441.01
1493.00	30018.15
1494.00	29436.14
1495.00	28728.52
1496.00	28244.80
1497.00	27768.12
1498.00	27673.71
1499.00	27762.65
1500.00	28153.52
1501.00	28574.82
1502.00	28826.04
1503.00	28933.70
1504.00	28893.13
1505.00	28992.22
1506.00	28961.01
1507.00	28823.70
1508.00	28741.00
1509.00	28611.49
1510.00	28435.95
1511.00	28166.01
1512.00	28036.50
1513.00	28055.22
1514.00	28336.87
1515.00	28538.93
1516.00	28628.65
1517.00	28578.72
1518.00	28372.75
1519.00	28373.53
1520.00	28203.46
1521.00	28095.01
1522.00	27878.12
1523.00	27868.76
1524.00	27971.74
1525.00	28190.19
1526.00	28164.45
1527.00	28316.58
1528.00	28464.04
1529.00	28550.63
1530.00	28526.45
1531.00	28472.62
1532.00	28606.81
1533.00	28545.17
1534.00	28391.48
1535.00	28278.35
1536.00	28183.95
1537.00	28123.10
1538.00	27960.04
1539.00	28107.49
1540.00	28187.85
1541.00	28194.09
1542.00	28196.43
1543.00	28230.76
1544.00	28396.94
1545.00	28362.61
1546.00	28357.15
1547.00	28243.24
1548.00	28169.91
1549.00	28105.15
1550.00	28091.11
1551.00	27942.88
1552.00	27777.48
1553.00	27754.07
1554.00	27637.83
1555.00	27769.68
1556.00	27839.11
1557.00	28084.09
1558.00	28041.18
1559.00	27992.03
1560.00	27882.02
1561.00	27948.34
1562.00	28069.26
1563.00	28171.47
1564.00	28132.46
1565.00	28018.55
1566.00	28122.32
1567.00	28035.72
1568.00	27995.15
1569.00	27853.16
1570.00	27786.06
1571.00	27604.28
1572.00	27450.58
1573.00	27384.27
1574.00	27348.38
1575.00	27227.45
1576.00	27019.92
1577.00	26817.86
1578.00	26849.85
1579.00	26786.65
1580.00	26764.81
1581.00	26735.16
1582.00	26679.77
1583.00	26632.96
1584.00	26458.20
1585.00	26493.30
1586.00	26430.11
1587.00	26301.38
1588.00	26380.18
1589.00	26441.03
1590.00	26525.29
1591.00	26380.96
1592.00	26427.77
1593.00	26393.44
1594.00	26311.52
1595.00	26107.12
1596.00	26121.16
1597.00	26208.54
1598.00	26299.04
1599.00	26202.30
1600.00	26173.43
1601.00	26180.45
1602.00	26229.60
1603.00	26106.34
1604.00	26014.27
1605.00	25926.89
1606.00	26054.06
1607.00	26113.36
1608.00	25981.51
1609.00	25881.64
1610.00	25724.83
1611.00	25773.20
1612.00	25649.15
1613.00	25526.66
1614.00	25423.68
1615.00	25364.39
1616.00	25342.54
1617.00	25241.12
1618.00	25223.95
1619.00	24972.74
1620.00	24914.22
1621.00	24749.60
1622.00	24825.28
1623.00	24743.36
1624.00	24744.92
1625.00	24637.26
1626.00	24542.08
1627.00	24324.41
1628.00	24222.20
1629.00	24026.38
1630.00	24128.58
1631.00	24077.87
1632.00	24128.58
1633.00	23931.98
1634.00	23961.62
1635.00	23992.83
1636.00	24073.19
1637.00	24223.76
1638.00	24166.81
1639.00	23983.47
1640.00	23428.76
1641.00	23042.57
1642.00	22767.95
1643.00	22730.50
1644.00	22674.33
1645.00	22785.90
1646.00	23090.95
1647.00	23438.12
1648.00	23814.95
1649.00	24001.41
1650.00	24272.14
1651.00	24227.67
1652.00	24291.64
1653.00	24239.37
1654.00	24210.50
1655.00	23886.73
1656.00	23459.19
1657.00	23153.36
1658.00	23101.09
1659.00	23164.28
1660.00	23196.27
1661.00	23177.54
1662.00	23336.70
1663.00	23584.80
1664.00	23768.92
1665.00	23790.77
1666.00	23716.65
1667.00	23651.11
1668.00	23630.83
1669.00	23442.03
1670.00	23418.62
1671.00	23395.21
1672.00	23477.13
1673.00	23440.47
1674.00	23335.14
1675.00	23250.10
1676.00	23091.73
1677.00	22924.77
1678.00	22760.93
1679.00	22640.00
1680.00	22508.15
1681.00	22403.61
1682.00	22231.19
1683.00	21969.83
1684.00	21624.21
1685.00	21273.91
1686.00	20628.70
1687.00	19787.67
1688.00	18817.91
1689.00	18203.91
1690.00	17966.73
1691.00	18201.57
1692.00	18570.59
1693.00	19183.03
1694.00	19702.63
1695.00	20414.15
1696.00	20917.37
1697.00	21315.26
1698.00	21504.84
1699.00	21625.77
1700.00	21733.43
1701.00	21874.65
1702.00	22013.52
1703.00	22072.81
1704.00	22191.40
1705.00	22171.11
1706.00	22221.83
1707.00	22142.25
1708.00	22063.45
1709.00	21995.57
1710.00	21831.74
1711.00	21800.53
1712.00	21664.78
1713.00	21665.56
1714.00	21706.91
1715.00	21886.35
1716.00	21994.79
1717.00	22016.64
1718.00	21996.35
1719.00	22002.60
1720.00	21968.27
1721.00	21795.07
1722.00	21694.43
1723.00	21724.07
1724.00	21830.96
1725.00	21930.82
1726.00	21881.67
1727.00	21921.46
1728.00	21825.50
1729.00	21792.73
1730.00	21578.96
1731.00	21486.12
1732.00	21388.60
1733.00	21429.95
1734.00	21342.56
1735.00	21264.55
1736.00	21145.96
1737.00	21117.87
1738.00	21023.47
1739.00	20871.34
1740.00	20873.68
1741.00	20823.75
1742.00	20783.96
1743.00	20675.51
1744.00	20793.32
1745.00	20833.11
1746.00	20805.80
1747.00	20638.06
1748.00	20581.89
1749.00	20652.11
1750.00	20645.87
1751.00	20691.12
1752.00	20565.51
1753.00	20506.99
1754.00	20417.27
1755.00	20386.85
1756.00	20447.70
1757.00	20425.86
1758.00	20321.31
1759.00	20185.56
1760.00	20036.55
1761.00	20020.16
1762.00	19915.62
1763.00	19974.13
1764.00	19798.59
1765.00	19849.30
1766.00	19885.19
1767.00	19930.44
1768.00	19911.72
1769.00	19772.85
1770.00	19746.32
1771.00	19652.70
1772.00	19594.96
1773.00	19620.71
1774.00	19647.24
1775.00	19722.13
1776.00	19663.62
1777.00	19573.90
1778.00	19528.65
1779.00	19440.49
1780.00	19413.18
1781.00	19243.88
1782.00	19295.38
1783.00	19281.33
1784.00	19295.38
1785.00	19232.18
1786.00	19103.45
1787.00	19051.18
1788.00	18877.20
1789.00	18760.95
1790.00	18635.35
1791.00	18672.01
1792.00	18665.77
1793.00	18618.96
1794.00	18498.81
1795.00	18349.02
1796.00	18218.73
1797.00	18138.37
1798.00	18043.97
1799.00	18037.73
1800.00	17917.58
1801.00	17932.40
1802.00	18028.37
1803.00	18058.79
1804.00	18134.47
1805.00	18061.13
1806.00	18107.94
1807.00	18042.41
1808.00	17947.23
1809.00	17920.70
1810.00	17869.21
1811.00	17866.87
1812.00	17742.82
1813.00	17729.56
1814.00	17583.66
1815.00	17530.61
1816.00	17498.63
1817.00	17545.44
1818.00	17408.90
1819.00	17371.46
1820.00	17215.42
1821.00	17252.09
1822.00	17135.84
1823.00	17128.04
1824.00	17155.35
1825.00	17156.91
1826.00	17167.83
1827.00	17016.47
1828.00	16952.50
1829.00	16973.56
1830.00	16883.06
1831.00	16830.79
1832.00	16750.43
1833.00	16780.86
1834.00	16695.04
1835.00	16556.17
1836.00	16351.76
1837.00	16285.45
1838.00	16245.66
1839.00	16286.23
1840.00	16368.93
1841.00	16416.52
1842.00	16549.15
1843.00	16453.19
1844.00	16323.68
1845.00	16143.46
1846.00	16083.38
1847.00	16012.38
1848.00	15903.94
1849.00	15747.90
1850.00	15654.28
1851.00	15613.71
1852.00	15580.95
1853.00	15588.75
1854.00	15607.47
1855.00	15551.30
1856.00	15514.63
1857.00	15458.46
1858.00	15394.48
1859.00	15343.77
1860.00	15325.05
1861.00	15311.78
1862.00	15189.30
1863.00	15071.49
1864.00	14918.57
1865.00	14925.60
1866.00	14938.08
1867.00	14952.12
1868.00	14983.33
1869.00	14936.52
1870.00	14857.72
1871.00	14689.98
1872.00	14564.37
1873.00	14599.48
1874.00	14629.91
1875.00	14576.86
1876.00	14477.77
1877.00	14301.45
1878.00	14234.36
1879.00	14159.46
1880.00	14185.99
1881.00	14121.23
1882.00	14076.76
1883.00	13862.21
1884.00	13835.69
1885.00	13729.58
1886.00	13652.34
1887.00	13515.81
1888.00	13441.70
1889.00	13493.97
1890.00	13445.60
1891.00	13434.68
1892.00	13408.93
1893.00	13436.24
1894.00	13437.02
1895.00	13353.54
1896.00	13288.78
1897.00	13218.57
1898.00	13154.59
1899.00	13025.08
1900.00	12979.83
1901.00	12922.10
1902.00	12954.09
1903.00	12720.03
1904.00	12327.60
1905.00	11629.34
1906.00	10833.56
1907.00	9896.57
1908.00	9107.80
1909.00	8486.00
1910.00	8141.16
1911.00	7891.51
1912.00	7879.02
1913.00	8116.20
1914.00	8545.30
1915.00	9040.71
1916.00	9382.43
1917.00	9787.34
1918.00	9948.84
1919.00	10072.11
1920.00	9931.67
1921.00	9848.97
1922.00	9753.01
1923.00	9643.79
1924.00	9591.52
1925.00	9557.97
1926.00	9493.99
1927.00	9380.87
1928.00	9381.65
1929.00	9493.21
1930.00	9639.11
1931.00	9689.04
1932.00	9735.85
1933.00	9767.84
1934.00	9872.38
1935.00	9912.17
1936.00	9955.08
1937.00	9989.41
1938.00	10049.48
1939.00	10186.79
1940.00	10228.92
1941.00	10233.60
1942.00	10169.63
1943.00	10103.31
1944.00	10086.93
1945.00	10011.25
1946.00	9964.44
1947.00	9944.94
1948.00	9966.78
1949.00	10072.89
1950.00	10051.82
1951.00	9998.77
1952.00	9846.63
1953.00	9829.47
1954.00	9773.30
1955.00	9813.09
1956.00	9717.12
1957.00	9671.09
1958.00	9541.58
1959.00	9521.30
1960.00	9453.42
1961.00	9425.34
1962.00	9297.39
1963.00	9243.56
1964.00	9228.73
1965.00	9279.44
1966.00	9288.81
1967.00	9284.91
1968.00	9276.32
1969.00	9252.14
1970.00	9185.82
1971.00	9158.52
1972.00	9123.41
1973.00	9090.64
1974.00	9015.74
1975.00	9024.33
1976.00	9014.18
1977.00	9038.37
1978.00	9088.30
1979.00	9075.04
1980.00	9137.45
1981.00	9136.67
1982.00	9216.25
1983.00	9190.50
1984.00	9142.91
1985.00	9035.25
1986.00	8975.95
1987.00	8816.80
1988.00	8759.06
1989.00	8742.68
1990.00	8723.18
1991.00	8577.28
1992.00	8450.11
1993.00	8422.03
1994.00	8404.08
1995.00	8333.09
1996.00	8250.39
1997.00	8165.35
1998.00	8084.21
1999.00	8036.62
2000.00	8023.36
2001.00	8024.14
2002.00	8014.77
2003.00	8019.46
2004.00	7943.78
2005.00	7881.36
2006.00	7833.77
2007.00	7790.86
2008.00	7707.38
2009.00	7638.73
2010.00	7626.25
2011.00	7613.76
2012.00	7671.50
2013.00	7651.99
2014.00	7582.56
2015.00	7470.21
2016.00	7312.61
2017.00	7318.86
2018.00	7259.56
2019.00	7328.22
2020.00	7243.18
2021.00	7243.96
2022.00	7190.13
2023.00	7208.07
2024.00	7141.75
2025.00	7081.68
2026.00	7064.52
2027.00	7116.79
2028.00	7140.97
2029.00	7169.84
2030.00	7161.26
2031.00	7188.57
2032.00	7146.44
2033.00	7097.28
2034.00	6991.18
2035.00	6947.49
2036.00	6892.88
2037.00	6950.61
2038.00	6935.01
2039.00	6946.71
2040.00	6892.88
2041.00	6881.18
2042.00	6907.70
2043.00	6880.39
2044.00	6821.10
2045.00	6708.76
2046.00	6706.42
2047.00	6768.83
>>>>>End Processed Spectral Data<<<<<
