SpectraSuite Data File
++++++++++++++++++++++++++++++++++++
Date: Thu Nov 16 13:32:54 EST 2017
User: cheriyan
Dark Spectrum Present: No
Reference Spectrum Present: No
Number of Sampled Component Spectra: 1
Spectrometers: USB2+H05261
Integration Time (usec): 90000 (USB2+H05261)
Spectra Averaged: 1 (USB2+H05261)
Boxcar Smoothing: 1 (USB2+H05261)
Correct for Electrical Dark: No (USB2+H05261)
Strobe/Lamp Enabled: No (USB2+H05261)
Correct for Detector Non-linearity: No (USB2+H05261)
Correct for Stray Light: No (USB2+H05261)
Number of Pixels in Processed Spectrum: 2048
>>>>>Begin Processed Spectral Data<<<<<
0.00	397.89
1.00	397.89
2.00	354.20
3.00	320.65
4.00	278.52
5.00	254.34
6.00	248.88
7.00	248.88
8.00	288.67
9.00	292.57
10.00	294.91
11.00	260.58
12.00	238.73
13.00	245.76
14.00	237.95
15.00	252.00
16.00	225.47
17.00	261.36
18.00	276.96
19.00	279.30
20.00	287.89
21.00	287.11
22.00	328.46
23.00	777.84
24.00	2434.16
25.00	4223.11
26.00	5565.01
27.00	5677.36
28.00	5542.39
29.00	5304.43
30.00	5093.01
31.00	5032.15
32.00	5147.62
33.00	5252.94
34.00	5210.03
35.00	5018.11
36.00	4733.34
37.00	4547.66
38.00	4503.97
39.00	4652.20
40.00	4819.16
41.00	4894.84
42.00	4819.94
43.00	4720.86
44.00	4747.39
45.00	4921.37
46.00	5231.88
47.00	5497.92
48.00	5681.26
49.00	5747.58
50.00	5738.99
51.00	5708.57
52.00	5710.91
53.00	5756.94
54.00	5863.82
55.00	6032.34
56.00	6299.94
57.00	6620.60
58.00	6896.78
59.00	7162.82
60.00	7287.65
61.00	7328.22
62.00	7162.04
63.00	6955.29
64.00	6680.67
65.00	6434.13
66.00	6159.51
67.00	5974.61
68.00	5898.15
69.00	5944.96
70.00	6083.83
71.00	6289.02
72.00	6597.97
73.00	6808.62
74.00	6937.35
75.00	6885.08
76.00	6707.20
77.00	6426.33
78.00	6111.92
79.00	5875.52
80.00	5628.21
81.00	5383.23
82.00	5123.43
83.00	4858.95
84.00	4642.84
85.00	4511.77
86.00	4476.66
87.00	4502.41
88.00	4521.92
89.00	4603.83
90.00	4785.62
91.00	5108.61
92.00	5534.59
93.00	5971.49
94.00	6312.42
95.00	6512.15
96.00	6491.87
97.00	6420.09
98.00	6242.21
99.00	6164.19
100.00	6011.28
101.00	6039.36
102.00	6161.07
103.00	6415.41
104.00	6523.07
105.00	6501.23
106.00	6438.81
107.00	6474.70
108.00	6577.69
109.00	6610.45
110.00	6590.95
111.00	6523.07
112.00	6554.28
113.00	6576.91
114.00	6644.00
115.00	6761.81
116.00	7030.97
117.00	7412.48
118.00	7768.24
119.00	8073.29
120.00	8303.44
121.00	8415.79
122.00	8397.06
123.00	8390.82
124.00	8475.86
125.00	8747.36
126.00	8979.86
127.00	9227.95
128.00	9376.19
129.00	9318.45
130.00	9174.90
131.00	8906.52
132.00	8644.38
133.00	8190.31
134.00	7655.89
135.00	6936.57
136.00	6142.35
137.00	5320.04
138.00	4748.17
139.00	4569.51
140.00	4793.42
141.00	5415.22
142.00	6103.34
143.00	6832.80
144.00	7561.49
145.00	8260.53
146.00	8904.18
147.00	9410.51
148.00	9799.82
149.00	10058.84
150.00	10017.49
151.00	9809.97
152.00	9246.68
153.00	8489.12
154.00	7579.43
155.00	6679.11
156.00	6007.38
157.00	5726.51
158.00	6085.39
159.00	6850.75
160.00	7886.05
161.00	8940.07
162.00	10061.96
163.00	10929.52
164.00	11566.15
165.00	12016.31
166.00	12435.27
167.00	12806.63
168.00	13092.96
169.00	13319.21
170.00	13525.18
171.00	13536.88
172.00	13703.84
173.00	13768.59
174.00	13941.01
175.00	13873.92
176.00	13960.52
177.00	14107.97
178.00	14335.78
179.00	14657.21
180.00	14864.74
181.00	15159.65
182.00	15170.57
183.00	15228.31
184.00	15286.04
185.00	15350.01
186.00	15341.43
187.00	15289.16
188.00	15116.74
189.00	14892.83
190.00	14678.28
191.00	14714.95
192.00	15072.27
193.00	15442.07
194.00	15616.05
195.00	15352.35
196.00	15061.35
197.00	14879.57
198.00	15114.40
199.00	15129.22
200.00	15272.78
201.00	15236.11
202.00	15376.54
203.00	15233.77
204.00	15056.67
205.00	14830.41
206.00	14686.08
207.00	14769.56
208.00	14952.90
209.00	15151.07
210.00	15282.14
211.00	15193.20
212.00	15179.93
213.00	15394.48
214.00	15794.72
215.00	16175.44
216.00	16352.54
217.00	16588.16
218.00	16841.71
219.00	17166.27
220.00	17255.21
221.00	17270.81
222.00	16897.89
223.00	16419.64
224.00	15794.72
225.00	15279.80
226.00	14959.14
227.00	15032.48
228.00	15378.10
229.00	15995.22
230.00	16676.32
231.00	17331.67
232.00	17862.19
233.00	18218.73
234.00	18370.86
235.00	18452.78
236.00	18402.85
237.00	18332.64
238.00	18327.17
239.00	18286.61
240.00	18171.92
241.00	18029.15
242.00	17994.04
243.00	18150.07
244.00	18394.27
245.00	18658.75
246.00	18760.17
247.00	18782.80
248.00	18711.80
249.00	18737.55
250.00	18815.57
251.00	18920.11
252.00	18956.00
253.00	18860.04
254.00	18952.10
255.00	19126.86
256.00	19499.78
257.00	19882.07
258.00	20223.01
259.00	20368.12
260.00	20376.70
261.00	20229.25
262.00	20010.80
263.00	19601.21
264.00	19252.47
265.00	19098.77
266.00	19177.57
267.00	19438.93
268.00	19583.26
269.00	19574.68
270.00	19492.76
271.00	19534.89
272.00	19802.49
273.00	20264.36
274.00	20272.94
275.00	20177.76
276.00	19707.31
277.00	19436.59
278.00	19321.90
279.00	19601.21
280.00	20223.01
281.00	20780.06
282.00	21273.91
283.00	21500.16
284.00	21497.82
285.00	21513.42
286.00	21529.81
287.00	21346.47
288.00	20982.90
289.00	20351.74
290.00	19793.13
291.00	19222.82
292.00	19054.30
293.00	19359.35
294.00	19777.53
295.00	20154.35
296.00	20279.18
297.00	20313.51
298.00	20460.18
299.00	20482.81
300.00	20595.93
301.00	20290.10
302.00	20261.24
303.00	20102.08
304.00	20138.75
305.00	20060.73
306.00	19930.44
307.00	19895.33
308.00	19758.80
309.00	19694.83
310.00	19862.57
311.00	20205.84
312.00	20407.13
313.00	20223.79
314.00	19565.32
315.00	18886.56
316.00	18535.48
317.00	18731.31
318.00	19090.97
319.00	19378.86
320.00	19694.83
321.00	19752.56
322.00	19651.14
323.00	19259.49
324.00	19118.28
325.00	19012.95
326.00	18919.33
327.00	18786.70
328.00	18177.38
329.00	17431.53
330.00	16563.19
331.00	15803.30
332.00	15128.44
333.00	14545.65
334.00	14480.11
335.00	14648.63
336.00	15316.47
337.00	16504.68
338.00	18263.20
339.00	19981.15
340.00	21394.84
341.00	21991.67
342.00	21764.64
343.00	21070.28
344.00	20492.95
345.00	20651.33
346.00	21093.69
347.00	21716.27
348.00	22095.44
349.00	21983.09
350.00	21298.09
351.00	20307.27
352.00	19613.69
353.00	19562.98
354.00	19992.08
355.00	20735.59
356.00	21420.58
357.00	21962.03
358.00	21979.19
359.00	22206.22
360.00	22326.37
361.00	22995.76
362.00	23282.87
363.00	23722.89
364.00	23769.70
365.00	23793.11
366.00	23700.26
367.00	23533.31
368.00	23364.01
369.00	22986.40
370.00	22977.82
371.00	22768.73
372.00	22545.60
373.00	22018.20
374.00	21493.14
375.00	21090.57
376.00	20812.82
377.00	20711.40
378.00	21155.32
379.00	21710.81
380.00	22589.29
381.00	23207.19
382.00	23719.77
383.00	23970.21
384.00	23747.86
385.00	23453.73
386.00	23271.95
387.00	23417.84
388.00	23861.76
389.00	24438.31
390.00	25141.25
391.00	25574.25
392.00	25934.70
393.00	26199.96
394.00	26632.18
395.00	26873.25
396.00	26996.52
397.00	27196.24
398.00	27411.57
399.00	27647.19
400.00	27349.16
401.00	27239.93
402.00	27202.49
403.00	27467.75
404.00	27623.00
405.00	27853.16
406.00	28091.89
407.00	27966.28
408.00	27637.83
409.00	27562.93
410.00	27740.81
411.00	27965.50
412.00	27543.42
413.00	27013.68
414.00	26276.41
415.00	25875.40
416.00	25714.69
417.00	25807.53
418.00	26212.44
419.00	26590.83
420.00	27094.04
421.00	27490.37
422.00	27825.85
423.00	28201.11
424.00	28396.16
425.00	28724.61
426.00	28701.21
427.00	28474.18
428.00	28295.52
429.00	28266.65
430.00	28466.38
431.00	28343.11
432.00	28251.05
433.00	28069.26
434.00	28053.66
435.00	28332.96
436.00	28511.63
437.00	28920.44
438.00	29068.67
439.00	29476.71
440.00	30004.89
441.00	30409.02
442.00	30645.41
443.00	30435.55
444.00	30353.63
445.00	30153.90
446.00	29912.83
447.00	29841.05
448.00	29797.36
449.00	29749.77
450.00	29447.84
451.00	29061.65
452.00	28546.73
453.00	27903.09
454.00	27472.43
455.00	27368.66
456.00	27622.22
457.00	28223.74
458.00	28723.83
459.00	29102.22
460.00	29334.71
461.00	29448.62
462.00	29552.38
463.00	29245.77
464.00	29127.97
465.00	29052.29
466.00	29120.95
467.00	29407.27
468.00	29596.07
469.00	30029.07
470.00	30301.36
471.00	30783.51
472.00	30849.04
473.00	30792.09
474.00	30787.41
475.00	30873.23
476.00	31165.79
477.00	31225.87
478.00	31431.83
479.00	31580.85
480.00	31369.42
481.00	31068.27
482.00	30544.77
483.00	30160.14
484.00	30309.16
485.00	30501.86
486.00	30898.97
487.00	30792.09
488.00	30675.84
489.00	30692.22
490.00	30682.08
491.00	30691.44
492.00	30573.64
493.00	30650.10
494.00	30815.49
495.00	30988.69
496.00	31249.27
497.00	31571.49
498.00	31752.49
499.00	31952.99
500.00	31799.30
501.00	31925.69
502.00	32017.75
503.00	32231.52
504.00	32467.13
505.00	32518.62
506.00	32591.18
507.00	32749.56
508.00	32730.05
509.00	32818.99
510.00	32672.32
511.00	32538.13
512.00	32387.55
513.00	32148.04
514.00	32105.13
515.00	31899.94
516.00	31762.63
517.00	31495.03
518.00	31283.60
519.00	31022.24
520.00	31157.21
521.00	31401.41
522.00	31595.67
523.00	31894.48
524.00	32087.96
525.00	32437.48
526.00	32132.43
527.00	31818.80
528.00	31051.11
529.00	30458.95
530.00	30203.05
531.00	30314.62
532.00	30732.01
533.00	31007.42
534.00	31285.94
535.00	31540.28
536.00	31328.85
537.00	31086.22
538.00	31023.80
539.00	31274.24
540.00	31612.84
541.00	31647.94
542.00	31699.44
543.00	31864.05
544.00	31947.53
545.00	31994.34
546.00	31450.56
547.00	31046.43
548.00	30703.93
549.00	30741.38
550.00	30719.53
551.00	30795.21
552.00	30934.86
553.00	31115.86
554.00	31431.83
555.00	32027.11
556.00	32611.46
557.00	33177.87
558.00	33624.92
559.00	33940.89
560.00	34020.47
561.00	33829.32
562.00	33401.79
563.00	33005.45
564.00	32635.65
565.00	32733.95
566.00	33155.25
567.00	33312.06
568.00	33340.93
569.00	33081.13
570.00	33503.99
571.00	34159.34
572.00	34715.61
573.00	34731.21
574.00	34526.02
575.00	34399.63
576.00	34624.33
577.00	34725.75
578.00	34813.91
579.00	34544.75
580.00	34457.37
581.00	34284.17
582.00	34310.69
583.00	34359.84
584.00	34597.80
585.00	35047.96
586.00	35633.88
587.00	35986.52
588.00	36043.47
589.00	36346.96
590.00	36797.90
591.00	37471.20
592.00	37687.31
593.00	37819.94
594.00	37647.52
595.00	37471.20
596.00	37344.03
597.00	37733.34
598.00	38270.10
599.00	38987.08
600.00	39459.87
601.00	39582.36
602.00	39583.14
603.00	39498.10
604.00	39721.23
605.00	40191.68
606.00	40243.95
607.00	40344.59
608.00	40416.37
609.00	41017.11
610.00	41304.99
611.00	41457.91
612.00	41751.26
613.00	42270.86
614.00	42490.87
615.00	42284.12
616.00	42000.13
617.00	42041.48
618.00	42372.28
619.00	42565.76
620.00	42764.71
621.00	42863.01
622.00	43117.35
623.00	43463.75
624.00	43407.58
625.00	43220.33
626.00	43022.17
627.00	43058.84
628.00	43430.98
629.00	43717.31
630.00	44292.30
631.00	44162.01
632.00	43471.55
633.00	42405.05
634.00	41172.36
635.00	39537.89
636.00	37855.82
637.00	37000.75
638.00	37275.37
639.00	38217.05
640.00	39401.36
641.00	40505.31
642.00	41546.85
643.00	42412.07
644.00	43274.16
645.00	44060.58
646.00	44893.82
647.00	45700.52
648.00	46322.32
649.00	46567.30
650.00	46462.75
651.00	46246.65
652.00	45843.29
653.00	45883.86
654.00	46372.25
655.00	47463.72
656.00	48351.57
657.00	49074.79
658.00	49364.24
659.00	49760.57
660.00	49925.19
661.00	49990.72
662.00	49876.04
663.00	49648.22
664.00	49618.58
665.00	49585.03
666.00	49682.55
667.00	49479.71
668.00	48875.85
669.00	48144.82
670.00	47785.94
671.00	47943.53
672.00	48624.63
673.00	49382.96
674.00	50334.00
675.00	50968.29
676.00	51347.45
677.00	51290.50
678.00	51053.33
679.00	50895.73
680.00	50897.29
681.00	51228.87
682.00	51746.90
683.00	52316.43
684.00	52881.28
685.00	53233.14
686.00	53563.16
687.00	53534.29
688.00	53398.54
689.00	53051.36
690.00	52637.87
691.00	52429.56
692.00	52517.72
693.00	52915.61
694.00	53315.84
695.00	53630.26
696.00	53785.51
697.00	53871.33
698.00	54038.29
699.00	54128.01
700.00	54197.45
701.00	54121.77
702.00	53998.50
703.00	53683.31
704.00	53198.04
705.00	52683.12
706.00	52622.26
707.00	52738.51
708.00	53304.14
709.00	53703.59
710.00	54177.94
711.00	54492.35
712.00	54648.39
713.00	54684.28
714.00	54426.04
715.00	54166.24
716.00	53683.31
717.00	53557.70
718.00	53165.27
719.00	53187.11
720.00	52998.31
721.00	52977.25
722.00	52763.48
723.00	52585.60
724.00	52687.80
725.00	52568.43
726.00	52619.14
727.00	52789.22
728.00	53139.52
729.00	53433.65
730.00	53647.42
731.00	54030.49
732.00	54308.23
733.00	54369.08
734.00	54243.48
735.00	53954.03
736.00	53492.94
737.00	53010.79
738.00	52735.39
739.00	52871.14
740.00	53296.34
741.00	53750.40
742.00	54128.01
743.00	54263.76
744.00	54521.22
745.00	54774.78
746.00	55129.76
747.00	55437.93
748.00	55664.96
749.00	55863.13
750.00	55863.91
751.00	55542.47
752.00	55383.32
753.00	55185.15
754.00	55222.60
755.00	55044.72
756.00	55028.34
757.00	54797.40
758.00	54616.40
759.00	54220.07
760.00	53986.80
761.00	53762.89
762.00	53919.70
763.00	54330.08
764.00	54790.38
765.00	55220.26
766.00	55684.47
767.00	56076.90
768.00	56182.22
769.00	56031.64
770.00	55849.08
771.00	55608.79
772.00	55493.32
773.00	55318.56
774.00	55365.37
775.00	55281.89
776.00	55310.76
777.00	55320.12
778.00	55462.11
779.00	55772.63
780.00	56072.21
781.00	56410.03
782.00	56569.97
783.00	56626.14
784.00	56394.43
785.00	55984.83
786.00	55560.42
787.00	55297.50
788.00	55264.73
789.00	55345.09
790.00	55365.37
791.00	55376.29
792.00	55341.19
793.00	55229.62
794.00	55121.18
795.00	54841.87
796.00	54837.19
797.00	54752.93
798.00	54912.87
799.00	55054.08
800.00	55160.19
801.00	55243.66
802.00	55274.87
803.00	55419.20
804.00	55662.62
805.00	55947.39
806.00	56047.25
807.00	55695.39
808.00	55025.99
809.00	53917.36
810.00	52599.64
811.00	51033.04
812.00	49766.81
813.00	49261.26
814.00	49794.12
815.00	51102.48
816.00	52498.22
817.00	53344.71
818.00	53412.59
819.00	52794.68
820.00	52112.03
821.00	51800.74
822.00	52184.58
823.00	52836.81
824.00	53550.68
825.00	54036.73
826.00	54337.88
827.00	54791.16
828.00	55118.06
829.00	55551.84
830.00	55698.51
831.00	55642.34
832.00	55498.78
833.00	55194.51
834.00	55233.52
835.00	55294.38
836.00	55530.77
837.00	55812.41
838.00	55977.03
839.00	56079.24
840.00	56139.31
841.00	56247.75
842.00	56312.51
843.00	56151.01
844.00	55781.21
845.00	55356.01
846.00	54951.88
847.00	54821.59
848.00	54838.75
849.00	55160.19
850.00	55514.39
851.00	56002.00
852.00	56324.99
853.00	56614.44
854.00	56839.13
855.00	56985.80
856.00	56957.72
857.00	56813.38
858.00	56612.88
859.00	56446.70
860.00	56356.98
861.00	56227.47
862.00	56456.84
863.00	56509.89
864.00	56499.75
865.00	55884.97
866.00	55047.06
867.00	53957.93
868.00	53030.30
869.00	52474.81
870.00	52262.60
871.00	52463.89
872.00	52807.95
873.00	53539.75
874.00	54309.79
875.00	54950.32
876.00	55323.24
877.00	55468.36
878.00	55675.88
879.00	55893.55
880.00	56247.75
881.00	56530.96
882.00	56747.07
883.00	56868.78
884.00	56825.87
885.00	56570.75
886.00	56136.19
887.00	55815.54
888.00	55721.91
889.00	55774.97
890.00	55899.79
891.00	56133.07
892.00	56498.19
893.00	56708.84
894.00	56850.05
895.00	56765.01
896.00	56687.78
897.00	56541.10
898.00	56431.88
899.00	56288.32
900.00	56062.07
901.00	55554.96
902.00	55038.48
903.00	54378.45
904.00	53933.74
905.00	53831.54
906.00	54097.58
907.00	54692.86
908.00	55035.36
909.00	55542.47
910.00	55612.69
911.00	55569.00
912.00	55231.18
913.00	55144.58
914.00	55101.67
915.00	55177.35
916.00	55271.75
917.00	55588.50
918.00	55767.94
919.00	55976.25
920.00	56131.51
921.00	56388.19
922.00	56504.43
923.00	56396.77
924.00	56204.06
925.00	55769.50
926.00	55399.70
927.00	54979.18
928.00	54621.08
929.00	54407.31
930.00	54263.76
931.00	54522.00
932.00	54856.70
933.00	55163.31
934.00	55243.66
935.00	55246.79
936.00	55304.52
937.00	55320.90
938.00	55306.86
939.00	55248.35
940.00	55158.62
941.00	54912.09
942.00	54735.77
943.00	54475.97
944.00	54253.62
945.00	53957.15
946.00	53859.63
947.00	53669.26
948.00	53516.35
949.00	53307.26
950.00	53301.02
951.00	53198.82
952.00	53012.35
953.00	52948.38
954.00	53215.20
955.00	53569.40
956.00	53830.76
957.00	53897.08
958.00	54154.54
959.00	54291.07
960.00	54228.65
961.00	53960.27
962.00	53918.92
963.00	53910.34
964.00	53939.99
965.00	53833.10
966.00	53846.36
967.00	53890.05
968.00	54006.30
969.00	54238.01
970.00	54586.75
971.00	54950.32
972.00	55086.85
973.00	54867.62
974.00	54577.39
975.00	54411.99
976.00	54284.83
977.00	54334.76
978.00	54252.84
979.00	54267.66
980.00	54098.36
981.00	54259.86
982.00	54267.66
983.00	54210.71
984.00	54018.00
985.00	53994.60
986.00	53993.82
987.00	53890.05
988.00	53961.05
989.00	53854.95
990.00	53827.64
991.00	53437.55
992.00	53170.73
993.00	52967.88
994.00	53106.76
995.00	53338.47
996.00	53614.65
997.00	53804.24
998.00	53956.37
999.00	53987.58
1000.00	54089.78
1001.00	54053.89
1002.00	53922.82
1003.00	53808.92
1004.00	53827.64
1005.00	53943.11
1006.00	53935.30
1007.00	53826.86
1008.00	53729.34
1009.00	53492.94
1010.00	53491.38
1011.00	53228.46
1012.00	53330.67
1013.00	53240.95
1014.00	53427.41
1015.00	53375.14
1016.00	53459.40
1017.00	53633.38
1018.00	53881.47
1019.00	54043.75
1020.00	53901.76
1021.00	53670.04
1022.00	53304.14
1023.00	53009.23
1024.00	52765.82
1025.00	52850.86
1026.00	53102.07
1027.00	53257.33
1028.00	53194.14
1029.00	53180.87
1030.00	53208.96
1031.00	53503.87
1032.00	53579.54
1033.00	53840.12
1034.00	53786.29
1035.00	53773.03
1036.00	53754.30
1037.00	53571.74
1038.00	53540.53
1039.00	53318.18
1040.00	53357.97
1041.00	53113.78
1042.00	52918.73
1043.00	52710.42
1044.00	52708.08
1045.00	52708.08
1046.00	52522.40
1047.00	52255.58
1048.00	52044.15
1049.00	51994.22
1050.00	52026.21
1051.00	52041.81
1052.00	52184.58
1053.00	52262.60
1054.00	52287.57
1055.00	52201.75
1056.00	52070.68
1057.00	51704.77
1058.00	51262.41
1059.00	50770.90
1060.00	50649.19
1061.00	50593.02
1062.00	50697.56
1063.00	50737.35
1064.00	50766.22
1065.00	50686.64
1066.00	50658.56
1067.00	50713.95
1068.00	50820.83
1069.00	51114.96
1070.00	51427.81
1071.00	51961.45
1072.00	52327.36
1073.00	52524.74
1074.00	52216.57
1075.00	51680.59
1076.00	51050.98
1077.00	50848.92
1078.00	50759.20
1079.00	50872.32
1080.00	50808.35
1081.00	50889.49
1082.00	50978.43
1083.00	51169.57
1084.00	51315.47
1085.00	51562.00
1086.00	51624.42
1087.00	51561.22
1088.00	51253.05
1089.00	51145.39
1090.00	50876.22
1091.00	50786.50
1092.00	50605.50
1093.00	50632.03
1094.00	50711.61
1095.00	50921.48
1096.00	51088.43
1097.00	51025.24
1098.00	50586.78
1099.00	50302.79
1100.00	49932.21
1101.00	49623.26
1102.00	49251.89
1103.00	49021.74
1104.00	48985.07
1105.00	48984.29
1106.00	49056.85
1107.00	49393.11
1108.00	49680.21
1109.00	50018.81
1110.00	50282.51
1111.00	50390.17
1112.00	50534.51
1113.00	50286.41
1114.00	50176.40
1115.00	49835.47
1116.00	49612.34
1117.00	49171.53
1118.00	48849.32
1119.00	48422.56
1120.00	48239.22
1121.00	48130.78
1122.00	48340.64
1123.00	48551.29
1124.00	48712.79
1125.00	48623.85
1126.00	48515.40
1127.00	48447.53
1128.00	48250.92
1129.00	47962.26
1130.00	47490.25
1131.00	47140.73
1132.00	46720.99
1133.00	46406.58
1134.00	46175.65
1135.00	46151.46
1136.00	46436.23
1137.00	46777.17
1138.00	47199.24
1139.00	47523.02
1140.00	47878.78
1141.00	48103.47
1142.00	48167.44
1143.00	48122.97
1144.00	48169.79
1145.00	48208.01
1146.00	48250.92
1147.00	48112.83
1148.00	47936.51
1149.00	47625.22
1150.00	47358.40
1151.00	47363.08
1152.00	47502.73
1153.00	47571.39
1154.00	47299.89
1155.00	46915.26
1156.00	46712.41
1157.00	46557.94
1158.00	46390.20
1159.00	46166.29
1160.00	45965.78
1161.00	45961.10
1162.00	45842.51
1163.00	45741.09
1164.00	45528.10
1165.00	45616.26
1166.00	45530.44
1167.00	45687.26
1168.00	45785.56
1169.00	46118.70
1170.00	46113.23
1171.00	45969.68
1172.00	45774.64
1173.00	45756.69
1174.00	45688.82
1175.00	45557.75
1176.00	45304.19
1177.00	44986.66
1178.00	44525.57
1179.00	44381.24
1180.00	44367.20
1181.00	44651.18
1182.00	44749.48
1183.00	44767.43
1184.00	44773.67
1185.00	44820.48
1186.00	45017.86
1187.00	45268.30
1188.00	45212.91
1189.00	45193.40
1190.00	45034.25
1191.00	45187.94
1192.00	45143.47
1193.00	45196.52
1194.00	45175.46
1195.00	45331.50
1196.00	45254.26
1197.00	45238.65
1198.00	45157.52
1199.00	45315.89
1200.00	45386.11
1201.00	45461.79
1202.00	45456.32
1203.00	45682.58
1204.00	45896.34
1205.00	46049.26
1206.00	45900.25
1207.00	45833.93
1208.00	45686.48
1209.00	45716.90
1210.00	45611.58
1211.00	45616.26
1212.00	45553.07
1213.00	45566.33
1214.00	45415.76
1215.00	45356.46
1216.00	45205.11
1217.00	45180.92
1218.00	45000.70
1219.00	44978.07
1220.00	44837.64
1221.00	44496.70
1222.00	44110.52
1223.00	43902.99
1224.00	43803.91
1225.00	43392.75
1226.00	43093.16
1227.00	42902.02
1228.00	43141.53
1229.00	43265.58
1230.00	43488.71
1231.00	43604.96
1232.00	43802.35
1233.00	43853.84
1234.00	43849.16
1235.00	43732.13
1236.00	43769.58
1237.00	43557.37
1238.00	43462.97
1239.00	43294.45
1240.00	43015.93
1241.00	42614.91
1242.00	41985.31
1243.00	41053.00
1244.00	39768.82
1245.00	38588.41
1246.00	37691.21
1247.00	37267.57
1248.00	36846.27
1249.00	36921.17
1250.00	37070.97
1251.00	37833.98
1252.00	38763.95
1253.00	39681.44
1254.00	40617.66
1255.00	41095.91
1256.00	41608.48
1257.00	41673.24
1258.00	41817.57
1259.00	41379.11
1260.00	41026.47
1261.00	40854.05
1262.00	40981.22
1263.00	41036.61
1264.00	40771.35
1265.00	40690.21
1266.00	40698.80
1267.00	40912.56
1268.00	41035.05
1269.00	41014.77
1270.00	40836.89
1271.00	40904.76
1272.00	40933.63
1273.00	41028.81
1274.00	41112.29
1275.00	41024.13
1276.00	40940.65
1277.00	40563.04
1278.00	40387.50
1279.00	40019.26
1280.00	39767.26
1281.00	39555.05
1282.00	39548.81
1283.00	39445.83
1284.00	39486.40
1285.00	39614.35
1286.00	39949.04
1287.00	40086.36
1288.00	40236.15
1289.00	40357.86
1290.00	40504.53
1291.00	40654.33
1292.00	40642.62
1293.00	40609.86
1294.00	40474.10
1295.00	40361.76
1296.00	40332.89
1297.00	40237.71
1298.00	40204.16
1299.00	40000.54
1300.00	39888.19
1301.00	39871.03
1302.00	39814.07
1303.00	39768.82
1304.00	39660.38
1305.00	39722.79
1306.00	39769.60
1307.00	39631.51
1308.00	39531.65
1309.00	39366.25
1310.00	39512.14
1311.00	39636.19
1312.00	39871.81
1313.00	39744.64
1314.00	39700.17
1315.00	39650.24
1316.00	39650.24
1317.00	39509.02
1318.00	39245.32
1319.00	39193.83
1320.00	39104.89
1321.00	39114.25
1322.00	38885.66
1323.00	38903.60
1324.00	38785.02
1325.00	38923.11
1326.00	38696.08
1327.00	38635.22
1328.00	38452.66
1329.00	38426.14
1330.00	38394.15
1331.00	38591.53
1332.00	38664.87
1333.00	38796.72
1334.00	38842.75
1335.00	38833.39
1336.00	38989.42
1337.00	39103.33
1338.00	39303.84
1339.00	39405.26
1340.00	39359.23
1341.00	39355.33
1342.00	39171.21
1343.00	38937.93
1344.00	38835.73
1345.00	38767.85
1346.00	38902.82
1347.00	38948.85
1348.00	38976.94
1349.00	38865.38
1350.00	38657.07
1351.00	38575.93
1352.00	38324.71
1353.00	38313.01
1354.00	38201.44
1355.00	38309.11
1356.00	38234.99
1357.00	38210.81
1358.00	38029.80
1359.00	38078.18
1360.00	38091.44
1361.00	38274.78
1362.00	38201.44
1363.00	38082.08
1364.00	37764.54
1365.00	37648.30
1366.00	37540.63
1367.00	37531.27
1368.00	37546.09
1369.00	37597.59
1370.00	37620.99
1371.00	37508.65
1372.00	37270.69
1373.00	37245.72
1374.00	37145.86
1375.00	37065.50
1376.00	36994.51
1377.00	36957.06
1378.00	36954.72
1379.00	36811.95
1380.00	36576.33
1381.00	36346.18
1382.00	36142.55
1383.00	35995.10
1384.00	35928.78
1385.00	36034.89
1386.00	36316.53
1387.00	36545.90
1388.00	36570.87
1389.00	36613.00
1390.00	36455.40
1391.00	36322.77
1392.00	35952.97
1393.00	35826.58
1394.00	35519.97
1395.00	35436.49
1396.00	35278.89
1397.00	35439.61
1398.00	35562.88
1399.00	35790.69
1400.00	35671.32
1401.00	35457.56
1402.00	35008.17
1403.00	34695.32
1404.00	34357.50
1405.00	34282.61
1406.00	34314.59
1407.00	34536.16
1408.00	34845.90
1409.00	35112.72
1410.00	35168.89
1411.00	35072.15
1412.00	35005.83
1413.00	34994.13
1414.00	34864.62
1415.00	34731.21
1416.00	34502.62
1417.00	34189.77
1418.00	33839.47
1419.00	33481.36
1420.00	33278.52
1421.00	33024.18
1422.00	32972.69
1423.00	32952.40
1424.00	33153.69
1425.00	33158.37
1426.00	33187.24
1427.00	33217.66
1428.00	33333.13
1429.00	33606.19
1430.00	33865.21
1431.00	34096.92
1432.00	34196.01
1433.00	34157.00
1434.00	34187.42
1435.00	34123.45
1436.00	33935.43
1437.00	33629.60
1438.00	33420.51
1439.00	33383.06
1440.00	33507.89
1441.00	33449.38
1442.00	33444.70
1443.00	33273.06
1444.00	33493.07
1445.00	33588.25
1446.00	33871.45
1447.00	33795.00
1448.00	33624.92
1449.00	33496.19
1450.00	33439.23
1451.00	33574.20
1452.00	33343.27
1453.00	33173.19
1454.00	32733.17
1455.00	32648.91
1456.00	32374.29
1457.00	32434.36
1458.00	32544.37
1459.00	32660.62
1460.00	32647.35
1461.00	32500.68
1462.00	32384.43
1463.00	32124.63
1464.00	31839.09
1465.00	31665.89
1466.00	31717.38
1467.00	31725.18
1468.00	31691.63
1469.00	31541.06
1470.00	31526.24
1471.00	31493.47
1472.00	31350.70
1473.00	31108.84
1474.00	30852.94
1475.00	30803.79
1476.00	30629.03
1477.00	30597.04
1478.00	30442.57
1479.00	30403.56
1480.00	30296.67
1481.00	30199.15
1482.00	30214.76
1483.00	30211.64
1484.00	30308.38
1485.00	30343.49
1486.00	30439.45
1487.00	30441.01
1488.00	30410.58
1489.00	30418.38
1490.00	30260.79
1491.00	30341.92
1492.00	30121.13
1493.00	29896.44
1494.00	29387.77
1495.00	28907.18
1496.00	28441.41
1497.00	28000.61
1498.00	27845.35
1499.00	27806.34
1500.00	28008.41
1501.00	28268.21
1502.00	28732.42
1503.00	28856.46
1504.00	28831.50
1505.00	28703.55
1506.00	28659.86
1507.00	28567.80
1508.00	28395.38
1509.00	28216.72
1510.00	27968.62
1511.00	27820.39
1512.00	27810.25
1513.00	27988.91
1514.00	28180.05
1515.00	28315.80
1516.00	28355.59
1517.00	28342.33
1518.00	28353.25
1519.00	28268.99
1520.00	28215.94
1521.00	27816.49
1522.00	27669.81
1523.00	27554.35
1524.00	27799.32
1525.00	27957.70
1526.00	28158.20
1527.00	28330.62
1528.00	28565.46
1529.00	28511.63
1530.00	28591.98
1531.00	28484.32
1532.00	28427.37
1533.00	28252.61
1534.00	28087.99
1535.00	27985.01
1536.00	27775.14
1537.00	27680.74
1538.00	27694.00
1539.00	27756.41
1540.00	27762.65
1541.00	27756.41
1542.00	27905.43
1543.00	28053.66
1544.00	28173.81
1545.00	28260.41
1546.00	28218.28
1547.00	28078.63
1548.00	27809.47
1549.00	27716.62
1550.00	27603.50
1551.00	27665.91
1552.00	27568.39
1553.00	27420.94
1554.00	27328.10
1555.00	27385.83
1556.00	27785.28
1557.00	27886.70
1558.00	28063.80
1559.00	28053.66
1560.00	28045.08
1561.00	27933.51
1562.00	27920.25
1563.00	27887.48
1564.00	27798.54
1565.00	27695.56
1566.00	27585.55
1567.00	27700.24
1568.00	27711.16
1569.00	27831.31
1570.00	27755.63
1571.00	27585.55
1572.00	27425.62
1573.00	27303.13
1574.00	27204.05
1575.00	26967.65
1576.00	26739.06
1577.00	26587.71
1578.00	26678.21
1579.00	26767.93
1580.00	26778.85
1581.00	26642.32
1582.00	26622.03
1583.00	26622.81
1584.00	26724.24
1585.00	26508.91
1586.00	26428.55
1587.00	26162.51
1588.00	26110.24
1589.00	25999.45
1590.00	25995.55
1591.00	26050.94
1592.00	25990.09
1593.00	25965.90
1594.00	26030.66
1595.00	26115.70
1596.00	26170.31
1597.00	26064.21
1598.00	26050.94
1599.00	26055.62
1600.00	26021.30
1601.00	25908.17
1602.00	25771.64
1603.00	25729.51
1604.00	25662.41
1605.00	25686.60
1606.00	25663.97
1607.00	25720.93
1608.00	25769.30
1609.00	25689.72
1610.00	25625.75
1611.00	25566.45
1612.00	25549.29
1613.00	25447.86
1614.00	25276.23
1615.00	25229.41
1616.00	25170.90
1617.00	25198.21
1618.00	25053.87
1619.00	24927.49
1620.00	24749.60
1621.00	24659.88
1622.00	24707.48
1623.00	24624.00
1624.00	24629.46
1625.00	24504.63
1626.00	24474.20
1627.00	24243.27
1628.00	24088.01
1629.00	23908.57
1630.00	23859.42
1631.00	23881.27
1632.00	23890.63
1633.00	23882.05
1634.00	23881.27
1635.00	23875.80
1636.00	23909.35
1637.00	23900.77
1638.00	23846.94
1639.00	23688.56
1640.00	23350.74
1641.00	23035.55
1642.00	22860.01
1643.00	22759.37
1644.00	22798.38
1645.00	22774.97
1646.00	23032.43
1647.00	23313.30
1648.00	23665.16
1649.00	23919.49
1650.00	24076.31
1651.00	24180.85
1652.00	24200.36
1653.00	24145.75
1654.00	23883.61
1655.00	23616.79
1656.00	23370.25
1657.00	23158.04
1658.00	22958.31
1659.00	22831.93
1660.00	22967.68
1661.00	23068.32
1662.00	23131.51
1663.00	23239.18
1664.00	23400.68
1665.00	23581.68
1666.00	23613.66
1667.00	23638.63
1668.00	23533.31
1669.00	23485.72
1670.00	23388.19
1671.00	23396.78
1672.00	23383.51
1673.00	23411.60
1674.00	23318.76
1675.00	23198.61
1676.00	23039.45
1677.00	22871.72
1678.00	22678.23
1679.00	22511.27
1680.00	22383.32
1681.00	22321.69
1682.00	22175.02
1683.00	21945.64
1684.00	21532.15
1685.00	20957.16
1686.00	20407.13
1687.00	19724.47
1688.00	18858.48
1689.00	18062.69
1690.00	17810.70
1691.00	17948.79
1692.00	18443.42
1693.00	18840.53
1694.00	19577.80
1695.00	20144.99
1696.00	20700.48
1697.00	20953.26
1698.00	21270.01
1699.00	21482.22
1700.00	21787.27
1701.00	21849.68
1702.00	21934.72
1703.00	21918.34
1704.00	22134.45
1705.00	22107.92
1706.00	22127.42
1707.00	21861.38
1708.00	21804.43
1709.00	21712.37
1710.00	21630.45
1711.00	21561.80
1712.00	21520.45
1713.00	21557.89
1714.00	21626.55
1715.00	21710.03
1716.00	21713.15
1717.00	21696.77
1718.00	21656.20
1719.00	21717.05
1720.00	21791.17
1721.00	21714.71
1722.00	21635.13
1723.00	21435.41
1724.00	21425.26
1725.00	21499.38
1726.00	21628.11
1727.00	21717.83
1728.00	21685.06
1729.00	21653.08
1730.00	21588.32
1731.00	21524.35
1732.00	21357.39
1733.00	21309.80
1734.00	21290.29
1735.00	21298.09
1736.00	21147.52
1737.00	21014.11
1738.00	20947.01
1739.00	20851.05
1740.00	20797.22
1741.00	20610.76
1742.00	20606.08
1743.00	20428.98
1744.00	20478.13
1745.00	20390.75
1746.00	20520.26
1747.00	20496.07
1748.00	20595.15
1749.00	20524.94
1750.00	20586.57
1751.00	20515.58
1752.00	20568.63
1753.00	20472.67
1754.00	20472.67
1755.00	20360.32
1756.00	20280.74
1757.00	20139.53
1758.00	20050.59
1759.00	19939.02
1760.00	19928.88
1761.00	19882.85
1762.00	19978.03
1763.00	19967.89
1764.00	19984.27
1765.00	19869.59
1766.00	19880.51
1767.00	19864.13
1768.00	19871.93
1769.00	19613.69
1770.00	19520.07
1771.00	19444.39
1772.00	19445.95
1773.00	19467.80
1774.00	19517.73
1775.00	19612.13
1776.00	19503.68
1777.00	19399.14
1778.00	19450.63
1779.00	19456.87
1780.00	19479.50
1781.00	19323.46
1782.00	19216.58
1783.00	19029.34
1784.00	18937.27
1785.00	18951.32
1786.00	18943.52
1787.00	18867.84
1788.00	18785.92
1789.00	18880.32
1790.00	18824.93
1791.00	18783.58
1792.00	18544.84
1793.00	18507.40
1794.00	18348.24
1795.00	18292.85
1796.00	18202.35
1797.00	18216.39
1798.00	18089.22
1799.00	18038.51
1800.00	17943.33
1801.00	17973.75
1802.00	17904.32
1803.00	17897.30
1804.00	17858.29
1805.00	17881.69
1806.00	17986.24
1807.00	18033.05
1808.00	18014.32
1809.00	17941.77
1810.00	17838.78
1811.00	17769.35
1812.00	17578.20
1813.00	17531.39
1814.00	17513.45
1815.00	17546.22
1816.00	17483.02
1817.00	17358.97
1818.00	17096.05
1819.00	17039.88
1820.00	16978.25
1821.00	17181.87
1822.00	17201.38
1823.00	17171.73
1824.00	16996.97
1825.00	16947.04
1826.00	17013.35
1827.00	17035.20
1828.00	17035.20
1829.00	16907.25
1830.00	16792.56
1831.00	16738.73
1832.00	16715.33
1833.00	16620.92
1834.00	16482.83
1835.00	16335.38
1836.00	16255.02
1837.00	16176.22
1838.00	16208.99
1839.00	16254.24
1840.00	16253.46
1841.00	16196.51
1842.00	16199.63
1843.00	16203.53
1844.00	16106.79
1845.00	15971.82
1846.00	15793.94
1847.00	15753.37
1848.00	15708.90
1849.00	15630.88
1850.00	15623.86
1851.00	15599.67
1852.00	15615.27
1853.00	15579.39
1854.00	15511.51
1855.00	15382.78
1856.00	15268.87
1857.00	15353.91
1858.00	15356.25
1859.00	15395.26
1860.00	15170.57
1861.00	15122.20
1862.00	15051.99
1863.00	15056.67
1864.00	15003.61
1865.00	14898.29
1866.00	14861.62
1867.00	14842.12
1868.00	14766.44
1869.00	14687.64
1870.00	14658.00
1871.00	14643.17
1872.00	14641.61
1873.00	14608.84
1874.00	14599.48
1875.00	14541.75
1876.00	14471.53
1877.00	14379.47
1878.00	14326.42
1879.00	14182.87
1880.00	14183.65
1881.00	14150.10
1882.00	14132.15
1883.00	13946.47
1884.00	13735.82
1885.00	13582.13
1886.00	13456.52
1887.00	13477.58
1888.00	13483.83
1889.00	13508.01
1890.00	13443.26
1891.00	13426.87
1892.00	13372.26
1893.00	13364.46
1894.00	13301.26
1895.00	13355.10
1896.00	13280.98
1897.00	13263.82
1898.00	13091.40
1899.00	13085.15
1900.00	12998.56
1901.00	12862.80
1902.00	12790.25
1903.00	12689.60
1904.00	12314.34
1905.00	11578.63
1906.00	10632.27
1907.00	9856.78
1908.00	9096.10
1909.00	8520.33
1910.00	8121.66
1911.00	7861.08
1912.00	7872.78
1913.00	8081.09
1914.00	8533.59
1915.00	9003.26
1916.00	9366.82
1917.00	9731.17
1918.00	9896.57
1919.00	10015.15
1920.00	9958.98
1921.00	9896.57
1922.00	9845.85
1923.00	9714.00
1924.00	9561.09
1925.00	9458.10
1926.00	9411.29
1927.00	9411.29
1928.00	9389.45
1929.00	9473.71
1930.00	9539.24
1931.00	9626.62
1932.00	9704.64
1933.00	9802.94
1934.00	9802.16
1935.00	9818.55
1936.00	9894.22
1937.00	9972.24
1938.00	10005.01
1939.00	10042.46
1940.00	10108.77
1941.00	10178.99
1942.00	10140.76
1943.00	10178.21
1944.00	10144.66
1945.00	10193.81
1946.00	10173.53
1947.00	10118.92
1948.00	10015.15
1949.00	9934.01
1950.00	9910.61
1951.00	9880.18
1952.00	9768.62
1953.00	9628.96
1954.00	9565.77
1955.00	9578.25
1956.00	9651.59
1957.00	9675.77
1958.00	9624.28
1959.00	9490.87
1960.00	9366.04
1961.00	9246.68
1962.00	9197.53
1963.00	9181.14
1964.00	9210.79
1965.00	9200.65
1966.00	9090.64
1967.00	9129.65
1968.00	9091.42
1969.00	9142.13
1970.00	9101.56
1971.00	9018.08
1972.00	8970.49
1973.00	8894.82
1974.00	8938.51
1975.00	8981.42
1976.00	8961.13
1977.00	8951.77
1978.00	9013.40
1979.00	9068.02
1980.00	9181.92
1981.00	9109.36
1982.00	9185.04
1983.00	9087.52
1984.00	9103.90
1985.00	9035.25
1986.00	9019.64
1987.00	8928.36
1988.00	8730.20
1989.00	8708.35
1990.00	8664.66
1991.00	8681.05
1992.00	8567.92
1993.00	8434.51
1994.00	8393.16
1995.00	8334.65
1996.00	8268.33
1997.00	8169.25
1998.00	8145.06
1999.00	8095.91
2000.00	8007.75
2001.00	7920.37
2002.00	7952.36
2003.00	7938.32
2004.00	7941.44
2005.00	7911.79
2006.00	7852.50
2007.00	7810.37
2008.00	7730.79
2009.00	7733.91
2010.00	7687.88
2011.00	7666.03
2012.00	7694.90
2013.00	7634.83
2014.00	7559.93
2015.00	7479.57
2016.00	7497.52
2017.00	7462.41
2018.00	7350.06
2019.00	7232.26
2020.00	7194.81
2021.00	7231.48
2022.00	7189.35
2023.00	7169.06
2024.00	7152.68
2025.00	7101.97
2026.00	7077.78
2027.00	7039.55
2028.00	7096.50
2029.00	7077.78
2030.00	7101.19
2031.00	7164.38
2032.00	7236.94
2033.00	7233.04
2034.00	7112.11
2035.00	6995.08
2036.00	6890.54
2037.00	6930.33
2038.00	6953.73
2039.00	6931.89
2040.00	6871.03
2041.00	6906.14
2042.00	6945.15
2043.00	6905.36
2044.00	6779.75
2045.00	6764.15
2046.00	6700.17
2047.00	6569.88
>>>>>End Processed Spectral Data<<<<<
