SpectraSuite Data File
++++++++++++++++++++++++++++++++++++
Date: Thu Nov 16 13:32:49 EST 2017
User: cheriyan
Dark Spectrum Present: No
Reference Spectrum Present: No
Number of Sampled Component Spectra: 1
Spectrometers: USB2+H05261
Integration Time (usec): 90000 (USB2+H05261)
Spectra Averaged: 1 (USB2+H05261)
Boxcar Smoothing: 1 (USB2+H05261)
Correct for Electrical Dark: No (USB2+H05261)
Strobe/Lamp Enabled: No (USB2+H05261)
Correct for Detector Non-linearity: No (USB2+H05261)
Correct for Stray Light: No (USB2+H05261)
Number of Pixels in Processed Spectrum: 2048
>>>>>Begin Processed Spectral Data<<<<<
0.00	353.42
1.00	353.42
2.00	322.99
3.00	292.57
4.00	259.02
5.00	261.36
6.00	259.02
7.00	238.73
8.00	227.03
9.00	237.95
10.00	248.10
11.00	273.84
12.00	277.74
13.00	290.23
14.00	266.04
15.00	237.95
16.00	254.34
17.00	248.10
18.00	273.06
19.00	276.18
20.00	294.13
21.00	318.31
22.00	342.50
23.00	809.05
24.00	2441.18
25.00	4209.06
26.00	5550.97
27.00	5699.98
28.00	5616.51
29.00	5447.21
30.00	5240.46
31.00	5144.50
32.00	5208.47
33.00	5263.08
34.00	5284.93
35.00	5110.17
36.00	4943.99
37.00	4719.30
38.00	4664.69
39.00	4721.64
40.00	4831.65
41.00	4904.98
42.00	4831.65
43.00	4819.16
44.00	4893.28
45.00	5161.66
46.00	5433.94
47.00	5652.39
48.00	5800.63
49.00	5799.07
50.00	5828.71
51.00	5774.88
52.00	5824.03
53.00	5881.77
54.00	5975.39
55.00	6233.63
56.00	6441.15
57.00	6785.21
58.00	7015.37
59.00	7259.56
60.00	7373.47
61.00	7370.35
62.00	7290.77
63.00	7084.02
64.00	6808.62
65.00	6527.75
66.00	6251.57
67.00	6149.37
68.00	6041.70
69.00	6045.60
70.00	6134.54
71.00	6399.02
72.00	6725.14
73.00	6922.52
74.00	6998.20
75.00	6904.58
76.00	6778.97
77.00	6555.84
78.00	6297.60
79.00	6009.72
80.00	5660.20
81.00	5373.87
82.00	5117.19
83.00	4952.57
84.00	4836.33
85.00	4683.41
86.00	4502.41
87.00	4454.04
88.00	4460.28
89.00	4615.54
90.00	4857.39
91.00	5308.34
92.00	5757.72
93.00	6184.48
94.00	6434.91
95.00	6617.47
96.00	6636.20
97.00	6569.88
98.00	6445.84
99.00	6250.01
100.00	6156.39
101.00	6168.09
102.00	6384.98
103.00	6604.21
104.00	6670.53
105.00	6675.21
106.00	6603.43
107.00	6632.30
108.00	6595.63
109.00	6660.38
110.00	6657.26
111.00	6675.21
112.00	6604.99
113.00	6656.48
114.00	6693.93
115.00	6881.17
116.00	7122.25
117.00	7466.31
118.00	7792.42
119.00	8150.53
120.00	8387.70
121.00	8521.11
122.00	8526.57
123.00	8540.61
124.00	8692.75
125.00	8885.45
126.00	9185.04
127.00	9431.58
128.00	9623.50
129.00	9604.00
130.00	9426.90
131.00	9099.22
132.00	8741.90
133.00	8289.40
134.00	7745.61
135.00	7042.67
136.00	6217.24
137.00	5467.49
138.00	4897.18
139.00	4629.58
140.00	4782.49
141.00	5361.39
142.00	6213.34
143.00	7055.94
144.00	7804.13
145.00	8464.94
146.00	9062.55
147.00	9596.98
148.00	9909.83
149.00	10122.04
150.00	10106.43
151.00	9886.42
152.00	9403.49
153.00	8621.75
154.00	7759.66
155.00	6763.37
156.00	6093.97
157.00	5829.49
158.00	6209.44
159.00	6950.61
160.00	8062.37
161.00	9240.44
162.00	10438.01
163.00	11326.63
164.00	11925.03
165.00	12243.34
166.00	12601.44
167.00	12948.62
168.00	13276.30
169.00	13496.31
170.00	13619.58
171.00	13735.82
172.00	13894.98
173.00	14074.42
174.00	14243.72
175.00	14276.49
176.00	14310.04
177.00	14448.13
178.00	14726.65
179.00	15133.12
180.00	15289.94
181.00	15417.11
182.00	15331.29
183.00	15467.04
184.00	15582.51
185.00	15680.03
186.00	15635.56
187.00	15557.54
188.00	15365.62
189.00	15229.09
190.00	14979.43
191.00	15132.34
192.00	15332.85
193.00	15766.63
194.00	15893.80
195.00	15821.24
196.00	15449.10
197.00	15115.96
198.00	15186.18
199.00	15292.28
200.00	15493.57
201.00	15500.59
202.00	15563.00
203.00	15501.37
204.00	15267.31
205.00	15044.96
206.00	14884.25
207.00	14966.17
208.00	15161.99
209.00	15446.76
210.00	15556.76
211.00	15533.36
212.00	15375.76
213.00	15581.73
214.00	15929.69
215.00	16416.52
216.00	16565.53
217.00	16940.02
218.00	17218.54
219.00	17572.74
220.00	17624.23
221.00	17582.10
222.00	17272.37
223.00	16716.89
224.00	16081.82
225.00	15582.51
226.00	15307.88
227.00	15456.90
228.00	15847.77
229.00	16381.41
230.00	17078.89
231.00	17664.02
232.00	18090.78
233.00	18310.79
234.00	18422.36
235.00	18562.79
236.00	18674.35
237.00	18723.51
238.00	18699.32
239.00	18521.44
240.00	18428.60
241.00	18333.42
242.00	18317.81
243.00	18370.86
244.00	18606.48
245.00	18906.07
246.00	19173.67
247.00	19239.98
248.00	19138.56
249.00	19004.37
250.00	19077.71
251.00	19132.32
252.00	19179.13
253.00	19088.63
254.00	19133.88
255.00	19446.73
256.00	19946.05
257.00	20428.20
258.00	20798.78
259.00	20848.71
260.00	20728.56
261.00	20417.27
262.00	20048.25
263.00	19775.19
264.00	19498.22
265.00	19539.57
266.00	19675.32
267.00	20025.62
268.00	20089.60
269.00	20088.04
270.00	19973.35
271.00	20136.41
272.00	20453.16
273.00	20660.69
274.00	20691.90
275.00	20452.38
276.00	20212.09
277.00	19915.62
278.00	19802.49
279.00	19992.08
280.00	20591.25
281.00	21156.10
282.00	21603.14
283.00	21827.84
284.00	21913.66
285.00	21848.12
286.00	21829.40
287.00	21646.83
288.00	21412.00
289.00	20801.90
290.00	20315.85
291.00	19765.82
292.00	19521.63
293.00	19758.02
294.00	20166.84
295.00	20613.10
296.00	20712.96
297.00	20857.29
298.00	20939.99
299.00	20978.22
300.00	21075.74
301.00	20747.29
302.00	20611.54
303.00	20465.64
304.00	20557.71
305.00	20535.86
306.00	20279.96
307.00	20205.06
308.00	20004.56
309.00	19967.11
310.00	20090.38
311.00	20344.72
312.00	20453.94
313.00	20354.08
314.00	19861.79
315.00	19396.80
316.00	19037.92
317.00	19115.16
318.00	19371.83
319.00	19655.82
320.00	20028.74
321.00	20116.90
322.00	20054.49
323.00	19738.52
324.00	19533.33
325.00	19355.45
326.00	19265.73
327.00	19094.09
328.00	18576.83
329.00	17742.04
330.00	16878.38
331.00	15974.16
332.00	15380.44
333.00	14855.38
334.00	14778.14
335.00	14934.18
336.00	15559.10
337.00	16769.16
338.00	18497.25
339.00	20401.67
340.00	21852.80
341.00	22440.28
342.00	22029.90
343.00	21358.17
344.00	20941.55
345.00	21071.84
346.00	21557.89
347.00	22057.99
348.00	22507.37
349.00	22476.16
350.00	21862.94
351.00	20865.88
352.00	19981.15
353.00	19967.11
354.00	20388.41
355.00	21259.87
356.00	21783.37
357.00	22459.00
358.00	22472.26
359.00	22687.59
360.00	22667.31
361.00	23300.03
362.00	23650.33
363.00	24162.91
364.00	24254.97
365.00	24366.54
366.00	24230.79
367.00	24176.17
368.00	23878.93
369.00	23404.58
370.00	23158.04
371.00	22991.08
372.00	22938.81
373.00	22473.82
374.00	21908.97
375.00	21485.34
376.00	21182.63
377.00	21209.15
378.00	21493.14
379.00	22167.21
380.00	22853.77
381.00	23580.90
382.00	24056.81
383.00	24344.69
384.00	24165.25
385.00	23859.42
386.00	23670.62
387.00	23921.06
388.00	24371.22
389.00	25162.32
390.00	25775.54
391.00	26185.13
392.00	26277.97
393.00	26606.43
394.00	26994.96
395.00	27391.29
396.00	27437.32
397.00	27663.57
398.00	27851.59
399.00	28105.15
400.00	27924.15
401.00	27865.64
402.00	27808.68
403.00	28131.68
404.00	28328.28
405.00	28428.15
406.00	28565.46
407.00	28373.53
408.00	28187.85
409.00	27949.90
410.00	28123.10
411.00	28330.62
412.00	27993.59
413.00	27366.32
414.00	26685.23
415.00	26228.82
416.00	26139.88
417.00	26214.00
418.00	26784.31
419.00	27214.97
420.00	27569.95
421.00	27961.60
422.00	28272.11
423.00	28810.43
424.00	29028.88
425.00	29251.24
426.00	29133.43
427.00	28904.06
428.00	28644.26
429.00	28612.27
430.00	28680.92
431.00	28689.51
432.00	28581.06
433.00	28389.92
434.00	28460.91
435.00	28757.38
436.00	29090.52
437.00	29416.63
438.00	29622.60
439.00	30068.86
440.00	30602.50
441.00	31075.29
442.00	31252.39
443.00	31093.24
444.00	30873.23
445.00	30694.57
446.00	30593.92
447.00	30471.43
448.00	30326.32
449.00	30153.12
450.00	29864.46
451.00	29447.84
452.00	28744.90
453.00	28243.24
454.00	27782.16
455.00	27923.37
456.00	28148.84
457.00	28819.02
458.00	29234.85
459.00	29655.37
460.00	29914.39
461.00	30118.01
462.00	30094.61
463.00	29800.48
464.00	29543.02
465.00	29387.77
466.00	29426.00
467.00	29642.10
468.00	29816.86
469.00	30437.11
470.00	30858.40
471.00	31318.71
472.00	31291.40
473.00	31282.04
474.00	31421.69
475.00	31427.15
476.00	31573.83
477.00	31748.59
478.00	32043.49
479.00	32250.24
480.00	31777.45
481.00	31482.55
482.00	30861.52
483.00	30587.68
484.00	30684.42
485.00	31007.42
486.00	31419.35
487.00	31342.11
488.00	31253.95
489.00	31125.22
490.00	30915.36
491.00	30804.57
492.00	30989.47
493.00	31323.39
494.00	31516.87
495.00	31558.22
496.00	31663.55
497.00	32096.55
498.00	32552.17
499.00	32719.13
500.00	32549.83
501.00	32519.40
502.00	32609.90
503.00	32878.29
504.00	33079.57
505.00	33091.27
506.00	33144.33
507.00	33218.44
508.00	33305.04
509.00	33249.65
510.00	33052.27
511.00	32930.56
512.00	32889.21
513.00	32666.86
514.00	32550.61
515.00	32342.30
516.00	32116.83
517.00	31809.44
518.00	31622.20
519.00	31562.90
520.00	31880.44
521.00	31948.31
522.00	31983.42
523.00	31961.58
524.00	32362.59
525.00	32842.40
526.00	32762.04
527.00	32265.85
528.00	31502.05
529.00	30941.88
530.00	30821.73
531.00	30983.23
532.00	31293.74
533.00	31610.50
534.00	31911.64
535.00	32276.77
536.00	31960.80
537.00	31653.40
538.00	31392.83
539.00	31630.78
540.00	31949.87
541.00	32013.07
542.00	32033.35
543.00	31931.15
544.00	32191.73
545.00	32203.43
546.00	32001.36
547.00	31587.87
548.00	31445.88
549.00	31491.13
550.00	31239.91
551.00	31207.14
552.00	31275.02
553.00	31751.71
554.00	32126.19
555.00	32605.22
556.00	33042.12
557.00	33436.89
558.00	33833.22
559.00	34239.70
560.00	34565.03
561.00	34476.87
562.00	34177.28
563.00	33657.68
564.00	33397.88
565.00	33397.10
566.00	33642.08
567.00	33631.94
568.00	33720.10
569.00	33637.40
570.00	34253.74
571.00	34824.83
572.00	35377.98
573.00	35407.62
574.00	35187.61
575.00	35347.55
576.00	35452.09
577.00	35459.12
578.00	35280.46
579.00	35049.52
580.00	34920.79
581.00	34767.88
582.00	34813.91
583.00	34834.97
584.00	35038.60
585.00	35470.82
586.00	36172.20
587.00	36434.34
588.00	36731.59
589.00	37124.02
590.00	37787.95
591.00	38094.56
592.00	38297.41
593.00	38440.18
594.00	38430.82
595.00	38124.21
596.00	38062.57
597.00	38327.05
598.00	39062.76
599.00	39688.46
600.00	40183.10
601.00	40297.78
602.00	40246.29
603.00	40218.99
604.00	40435.10
605.00	40814.26
606.00	40893.84
607.00	40943.77
608.00	41012.43
609.00	41457.91
610.00	41796.51
611.00	42114.82
612.00	42421.43
613.00	42719.46
614.00	42926.99
615.00	42950.39
616.00	42965.99
617.00	42934.79
618.00	43070.54
619.00	43022.95
620.00	43139.19
621.00	43419.28
622.00	43788.30
623.00	44328.97
624.00	44205.70
625.00	43906.89
626.00	43487.93
627.00	43719.65
628.00	44033.28
629.00	44431.17
630.00	44661.32
631.00	44562.24
632.00	43847.60
633.00	42921.52
634.00	41753.60
635.00	39967.77
636.00	38262.30
637.00	37474.32
638.00	37986.11
639.00	39031.55
640.00	40229.91
641.00	41381.45
642.00	42249.01
643.00	43214.09
644.00	44055.90
645.00	44994.46
646.00	45819.89
647.00	46427.65
648.00	46851.28
649.00	47054.13
650.00	47009.66
651.00	46852.06
652.00	46344.95
653.00	46471.34
654.00	46938.66
655.00	47916.23
656.00	48856.34
657.00	49684.11
658.00	50196.69
659.00	50529.05
660.00	50723.31
661.00	50610.18
662.00	50478.33
663.00	50131.93
664.00	50201.37
665.00	50116.33
666.00	50287.19
667.00	50057.82
668.00	49641.98
669.00	48960.89
670.00	48501.36
671.00	48492.78
672.00	49065.43
673.00	50084.34
674.00	51104.82
675.00	51655.62
676.00	51776.55
677.00	51582.29
678.00	51377.88
679.00	51272.56
680.00	51377.88
681.00	51657.96
682.00	52195.51
683.00	52717.45
684.00	53412.59
685.00	53744.16
686.00	54050.77
687.00	53983.68
688.00	53861.19
689.00	53379.82
690.00	53028.74
691.00	52912.49
692.00	53096.61
693.00	53478.12
694.00	53795.65
695.00	54147.51
696.00	54267.66
697.00	54316.03
698.00	54384.69
699.00	54550.09
700.00	54696.76
701.00	54770.88
702.00	54600.80
703.00	54319.93
704.00	53837.78
705.00	53342.37
706.00	53183.99
707.00	53355.63
708.00	53810.48
709.00	54239.57
710.00	54635.13
711.00	54933.15
712.00	55086.07
713.00	55146.92
714.00	55007.27
715.00	54802.86
716.00	54287.95
717.00	54001.62
718.00	53536.63
719.00	53568.62
720.00	53454.72
721.00	53436.77
722.00	53272.93
723.00	53205.84
724.00	53111.44
725.00	53049.02
726.00	53100.51
727.00	53502.31
728.00	53814.38
729.00	54164.68
730.00	54365.18
731.00	54620.30
732.00	54789.60
733.00	54861.38
734.00	54799.74
735.00	54559.45
736.00	54110.85
737.00	53653.66
738.00	53294.00
739.00	53393.86
740.00	53659.12
741.00	54298.09
742.00	54628.88
743.00	54884.78
744.00	54901.17
745.00	55159.41
746.00	55476.16
747.00	55968.45
748.00	56247.75
749.00	56438.90
750.00	56314.07
751.00	56074.55
752.00	55927.10
753.00	55663.40
754.00	55606.45
755.00	55505.80
756.00	55552.62
757.00	55344.31
758.00	55113.37
759.00	54746.69
760.00	54550.87
761.00	54439.30
762.00	54565.69
763.00	54898.05
764.00	55224.94
765.00	55657.16
766.00	56033.21
767.00	56353.08
768.00	56469.33
769.00	56380.38
770.00	56226.69
771.00	55991.08
772.00	55852.20
773.00	55771.07
774.00	55732.84
775.00	55717.23
776.00	55694.61
777.00	55791.35
778.00	55944.26
779.00	56241.51
780.00	56516.14
781.00	56860.19
782.00	57061.48
783.00	56947.57
784.00	56718.20
785.00	56218.89
786.00	56030.08
787.00	55785.89
788.00	55729.72
789.00	55813.98
790.00	55823.34
791.00	55902.14
792.00	55734.40
793.00	55679.00
794.00	55563.54
795.00	55435.59
796.00	55320.12
797.00	55328.70
798.00	55386.44
799.00	55490.20
800.00	55622.05
801.00	55829.58
802.00	55964.55
803.00	55938.02
804.00	56030.08
805.00	56247.75
806.00	56389.75
807.00	56065.19
808.00	55270.97
809.00	54238.79
810.00	52968.66
811.00	51668.11
812.00	50477.55
813.00	49963.42
814.00	50369.89
815.00	51616.61
816.00	53005.33
817.00	53822.18
818.00	53882.25
819.00	53290.88
820.00	52694.04
821.00	52425.66
822.00	52779.08
823.00	53451.59
824.00	54135.81
825.00	54573.49
826.00	54836.41
827.00	55103.23
828.00	55443.39
829.00	55796.03
830.00	55939.58
831.00	55912.28
832.00	55780.43
833.00	55617.37
834.00	55587.72
835.00	55654.04
836.00	55927.88
837.00	56246.97
838.00	56429.54
839.00	56603.52
840.00	56651.11
841.00	56764.23
842.00	56722.88
843.00	56523.94
844.00	56210.31
845.00	55784.33
846.00	55475.38
847.00	55217.92
848.00	55313.10
849.00	55592.40
850.00	56081.58
851.00	56492.73
852.00	56888.28
853.00	57265.89
854.00	57446.11
855.00	57535.83
856.00	57324.40
857.00	57236.24
858.00	56987.36
859.00	56845.37
860.00	56710.40
861.00	56752.53
862.00	56951.48
863.00	56964.74
864.00	56741.61
865.00	56218.89
866.00	55483.18
867.00	54532.92
868.00	53597.49
869.00	53003.77
870.00	52746.31
871.00	52811.07
872.00	53123.14
873.00	53910.34
874.00	54820.03
875.00	55471.48
876.00	55854.54
877.00	55991.86
878.00	56188.46
879.00	56418.61
880.00	56666.71
881.00	56914.03
882.00	57115.31
883.00	57246.38
884.00	57198.01
885.00	56810.26
886.00	56435.00
887.00	56114.34
888.00	56082.36
889.00	56131.51
890.00	56348.40
891.00	56606.64
892.00	56981.90
893.00	57164.46
894.00	57311.92
895.00	57249.50
896.00	57151.20
897.00	56980.34
898.00	56789.98
899.00	56683.09
900.00	56367.90
901.00	55947.39
902.00	55395.02
903.00	54818.47
904.00	54426.04
905.00	54341.00
906.00	54618.74
907.00	55064.22
908.00	55495.66
909.00	55937.24
910.00	56080.02
911.00	56095.62
912.00	55814.76
913.00	55673.54
914.00	55494.88
915.00	55574.46
916.00	55632.97
917.00	55928.66
918.00	56169.74
919.00	56385.07
920.00	56579.33
921.00	56800.12
922.00	56949.92
923.00	56807.14
924.00	56570.75
925.00	56232.93
926.00	55847.52
927.00	55314.66
928.00	54897.27
929.00	54674.13
930.00	54668.67
931.00	54831.73
932.00	55255.37
933.00	55657.16
934.00	55880.29
935.00	55820.22
936.00	55804.61
937.00	55907.60
938.00	55874.05
939.00	55763.26
940.00	55530.77
941.00	55293.60
942.00	55228.84
943.00	54958.90
944.00	54739.67
945.00	54410.43
946.00	54271.56
947.00	54190.42
948.00	54081.98
949.00	53848.71
950.00	53702.81
951.00	53498.40
952.00	53395.42
953.00	53385.28
954.00	53608.41
955.00	54054.67
956.00	54423.70
957.00	54653.07
958.00	54885.56
959.00	55007.27
960.00	54883.22
961.00	54600.02
962.00	54463.49
963.00	54459.58
964.00	54396.39
965.00	54277.80
966.00	54298.09
967.00	54531.36
968.00	54681.16
969.00	54788.82
970.00	55054.08
971.00	55325.58
972.00	55503.46
973.00	55171.89
974.00	54875.42
975.00	54707.68
976.00	54717.04
977.00	54710.80
978.00	54734.99
979.00	54671.79
980.00	54575.83
981.00	54613.28
982.00	54642.93
983.00	54736.55
984.00	54628.88
985.00	54582.07
986.00	54514.20
987.00	54387.81
988.00	54495.47
989.00	54250.50
990.00	54250.50
991.00	53854.17
992.00	53758.98
993.00	53412.59
994.00	53499.97
995.00	53734.02
996.00	54069.50
997.00	54378.45
998.00	54562.57
999.00	54727.97
1000.00	54802.86
1001.00	54723.29
1002.00	54536.04
1003.00	54245.82
1004.00	54329.30
1005.00	54429.94
1006.00	54549.31
1007.00	54403.41
1008.00	54156.10
1009.00	53947.01
1010.00	53815.94
1011.00	53815.16
1012.00	53789.41
1013.00	53666.14
1014.00	53602.95
1015.00	53701.25
1016.00	53867.43
1017.00	54174.04
1018.00	54316.81
1019.00	54479.87
1020.00	54281.70
1021.00	53991.48
1022.00	53624.01
1023.00	53361.87
1024.00	53231.58
1025.00	53317.40
1026.00	53496.06
1027.00	53720.76
1028.00	53826.86
1029.00	53865.87
1030.00	53896.30
1031.00	53961.05
1032.00	54106.16
1033.00	54241.14
1034.00	54248.94
1035.00	54191.98
1036.00	54266.88
1037.00	54233.33
1038.00	54202.13
1039.00	53963.39
1040.00	53840.12
1041.00	53705.15
1042.00	53429.75
1043.00	53333.01
1044.00	53196.48
1045.00	53195.70
1046.00	53012.35
1047.00	52751.77
1048.00	52547.37
1049.00	52368.71
1050.00	52375.73
1051.00	52458.43
1052.00	52655.81
1053.00	52867.24
1054.00	52909.37
1055.00	52868.80
1056.00	52541.91
1057.00	52230.61
1058.00	51693.85
1059.00	51278.80
1060.00	51006.51
1061.00	50893.39
1062.00	50990.91
1063.00	51072.05
1064.00	51295.96
1065.00	51260.07
1066.00	51339.65
1067.00	51324.83
1068.00	51539.38
1069.00	51709.46
1070.00	52151.04
1071.00	52609.78
1072.00	52952.28
1073.00	52933.56
1074.00	52704.18
1075.00	52216.57
1076.00	51703.99
1077.00	51381.00
1078.00	51341.99
1079.00	51540.94
1080.00	51447.32
1081.00	51448.88
1082.00	51399.72
1083.00	51722.72
1084.00	51953.65
1085.00	52145.58
1086.00	52184.58
1087.00	52182.24
1088.00	51902.94
1089.00	51672.79
1090.00	51365.40
1091.00	51284.26
1092.00	51155.53
1093.00	51143.05
1094.00	51310.78
1095.00	51479.30
1096.00	51391.92
1097.00	51315.47
1098.00	51021.34
1099.00	50939.42
1100.00	50458.05
1101.00	50147.54
1102.00	49720.78
1103.00	49565.52
1104.00	49510.91
1105.00	49723.12
1106.00	49916.61
1107.00	50110.87
1108.00	50289.53
1109.00	50498.62
1110.00	50779.48
1111.00	50738.13
1112.00	50751.40
1113.00	50648.41
1114.00	50465.85
1115.00	50220.09
1116.00	49664.61
1117.00	49392.33
1118.00	49027.20
1119.00	48881.31
1120.00	48781.45
1121.00	48776.76
1122.00	48923.44
1123.00	48989.75
1124.00	49087.28
1125.00	49102.10
1126.00	48979.61
1127.00	48961.67
1128.00	48785.35
1129.00	48501.36
1130.00	48117.51
1131.00	47639.26
1132.00	47371.66
1133.00	46882.49
1134.00	46654.68
1135.00	46591.48
1136.00	46833.34
1137.00	47271.80
1138.00	47768.77
1139.00	48179.93
1140.00	48565.34
1141.00	48691.72
1142.00	48814.99
1143.00	48729.17
1144.00	48719.03
1145.00	48566.90
1146.00	48555.97
1147.00	48421.00
1148.00	48365.61
1149.00	48150.28
1150.00	48120.63
1151.00	48155.74
1152.00	48289.93
1153.00	48187.73
1154.00	47810.90
1155.00	47469.97
1156.00	47250.74
1157.00	47266.34
1158.00	46926.18
1159.00	46724.89
1160.00	46467.44
1161.00	46422.97
1162.00	46295.80
1163.00	46077.35
1164.00	46007.91
1165.00	46014.93
1166.00	46158.49
1167.00	46324.66
1168.00	46580.56
1169.00	46803.69
1170.00	46859.87
1171.00	46699.15
1172.00	46504.88
1173.00	46458.07
1174.00	46291.12
1175.00	46218.56
1176.00	45984.51
1177.00	45779.32
1178.00	45223.05
1179.00	44820.48
1180.00	44755.72
1181.00	45054.53
1182.00	45239.43
1183.00	45267.52
1184.00	45265.96
1185.00	45307.31
1186.00	45443.84
1187.00	45679.46
1188.00	45840.95
1189.00	45794.14
1190.00	45778.54
1191.00	45986.85
1192.00	46008.69
1193.00	45975.14
1194.00	45830.03
1195.00	45884.64
1196.00	45719.24
1197.00	45739.53
1198.00	45694.28
1199.00	45897.91
1200.00	45897.91
1201.00	46108.55
1202.00	46201.39
1203.00	46324.66
1204.00	46321.54
1205.00	46295.80
1206.00	46237.28
1207.00	46353.53
1208.00	46317.64
1209.00	46362.11
1210.00	46298.14
1211.00	46249.77
1212.00	46309.06
1213.00	46270.83
1214.00	46223.24
1215.00	45972.80
1216.00	45822.23
1217.00	45783.22
1218.00	45808.18
1219.00	45608.46
1220.00	45572.57
1221.00	45117.73
1222.00	44953.11
1223.00	44427.27
1224.00	44253.29
1225.00	43953.70
1226.00	44000.51
1227.00	43859.30
1228.00	43896.75
1229.00	43928.73
1230.00	44101.93
1231.00	44410.88
1232.00	44389.82
1233.00	44620.75
1234.00	44445.99
1235.00	44419.47
1236.00	44339.11
1237.00	44249.39
1238.00	44061.36
1239.00	43899.09
1240.00	43467.65
1241.00	43009.68
1242.00	42279.44
1243.00	41432.16
1244.00	40403.89
1245.00	39256.25
1246.00	38352.02
1247.00	37841.00
1248.00	37498.50
1249.00	37642.06
1250.00	37770.79
1251.00	38438.62
1252.00	39216.46
1253.00	40391.40
1254.00	41223.86
1255.00	41617.85
1256.00	42059.43
1257.00	42258.37
1258.00	42486.18
1259.00	42123.40
1260.00	41939.28
1261.00	41656.85
1262.00	41583.52
1263.00	41473.51
1264.00	41366.63
1265.00	41240.24
1266.00	41007.75
1267.00	41377.55
1268.00	41643.59
1269.00	41848.78
1270.00	41625.65
1271.00	41406.42
1272.00	41584.30
1273.00	41690.40
1274.00	41851.90
1275.00	41687.28
1276.00	41530.47
1277.00	41200.45
1278.00	40943.77
1279.00	40613.76
1280.00	40270.48
1281.00	40054.37
1282.00	40023.94
1283.00	40151.89
1284.00	40037.98
1285.00	40093.38
1286.00	40228.35
1287.00	40467.08
1288.00	40687.87
1289.00	40936.75
1290.00	41205.13
1291.00	41311.24
1292.00	41288.61
1293.00	41227.76
1294.00	41078.74
1295.00	40939.09
1296.00	40885.26
1297.00	40864.19
1298.00	40751.85
1299.00	40646.52
1300.00	40487.37
1301.00	40503.75
1302.00	40367.22
1303.00	40375.80
1304.00	40318.07
1305.00	40438.22
1306.00	40344.59
1307.00	40147.21
1308.00	40066.07
1309.00	40120.68
1310.00	40449.14
1311.00	40340.69
1312.00	40392.19
1313.00	40281.40
1314.00	40389.06
1315.00	40164.37
1316.00	40083.23
1317.00	40021.60
1318.00	39966.21
1319.00	39826.56
1320.00	39722.79
1321.00	39631.51
1322.00	39643.21
1323.00	39431.79
1324.00	39416.96
1325.00	39278.09
1326.00	39280.43
1327.00	39207.87
1328.00	38891.12
1329.00	38655.51
1330.00	38696.86
1331.00	38966.80
1332.00	39155.60
1333.00	39179.01
1334.00	39377.95
1335.00	39623.71
1336.00	39708.75
1337.00	39775.06
1338.00	39810.17
1339.00	40013.80
1340.00	39927.98
1341.00	39884.29
1342.00	39779.74
1343.00	39777.40
1344.00	39721.23
1345.00	39432.57
1346.00	39281.99
1347.00	39190.71
1348.00	39372.49
1349.00	39323.34
1350.00	39065.10
1351.00	38957.44
1352.00	38795.16
1353.00	38882.54
1354.00	38711.68
1355.00	38729.62
1356.00	38612.60
1357.00	38574.37
1358.00	38447.98
1359.00	38482.31
1360.00	38604.02
1361.00	38861.47
1362.00	38911.41
1363.00	38762.39
1364.00	38527.56
1365.00	38471.39
1366.00	38315.35
1367.00	38053.21
1368.00	37756.74
1369.00	37691.21
1370.00	37650.64
1371.00	37625.67
1372.00	37484.46
1373.00	37529.71
1374.00	37576.52
1375.00	37583.54
1376.00	37636.59
1377.00	37501.62
1378.00	37488.36
1379.00	37306.58
1380.00	37092.81
1381.00	36723.01
1382.00	36415.62
1383.00	36379.73
1384.00	36463.99
1385.00	36780.74
1386.00	36970.32
1387.00	37169.27
1388.00	37219.98
1389.00	37141.18
1390.00	37031.96
1391.00	36801.80
1392.00	36632.50
1393.00	36289.23
1394.00	36057.51
1395.00	35968.57
1396.00	36074.68
1397.00	36047.37
1398.00	35974.81
1399.00	35957.65
1400.00	35936.59
1401.00	35727.50
1402.00	35434.15
1403.00	35262.51
1404.00	35143.92
1405.00	35189.95
1406.00	35058.10
1407.00	35347.55
1408.00	35410.74
1409.00	35548.84
1410.00	35478.62
1411.00	35551.96
1412.00	35619.83
1413.00	35470.04
1414.00	35250.81
1415.00	35056.54
1416.00	34950.44
1417.00	34706.24
1418.00	34334.88
1419.00	33940.89
1420.00	33693.57
1421.00	33475.90
1422.00	33452.50
1423.00	33408.03
1424.00	33565.62
1425.00	33688.89
1426.00	33795.00
1427.00	33992.38
1428.00	34113.31
1429.00	34206.93
1430.00	34295.09
1431.00	34444.88
1432.00	34637.59
1433.00	34701.56
1434.00	34717.17
1435.00	34593.90
1436.00	34526.80
1437.00	34344.24
1438.00	34199.13
1439.00	34023.59
1440.00	33911.24
1441.00	33963.51
1442.00	34096.92
1443.00	34149.20
1444.00	34073.52
1445.00	33977.56
1446.00	34000.96
1447.00	34180.40
1448.00	34260.76
1449.00	34210.83
1450.00	34131.25
1451.00	33922.94
1452.00	33718.54
1453.00	33550.02
1454.00	33266.03
1455.00	33109.22
1456.00	32894.67
1457.00	32943.82
1458.00	33010.92
1459.00	33088.93
1460.00	33085.03
1461.00	32865.80
1462.00	32542.03
1463.00	32190.95
1464.00	32137.12
1465.00	32055.20
1466.00	32072.36
1467.00	31949.87
1468.00	31884.34
1469.00	31843.77
1470.00	31843.77
1471.00	31739.22
1472.00	31630.00
1473.00	31409.21
1474.00	31437.30
1475.00	31346.01
1476.00	31232.89
1477.00	31133.81
1478.00	31116.64
1479.00	31166.57
1480.00	30945.78
1481.00	30693.01
1482.00	30540.87
1483.00	30531.51
1484.00	30579.88
1485.00	30593.92
1486.00	30730.45
1487.00	30863.08
1488.00	30976.99
1489.00	30955.93
1490.00	30975.43
1491.00	30908.33
1492.00	30744.50
1493.00	30342.70
1494.00	29894.88
1495.00	29492.31
1496.00	28933.70
1497.00	28451.55
1498.00	28200.33
1499.00	28247.15
1500.00	28668.44
1501.00	28886.89
1502.00	29181.02
1503.00	29199.74
1504.00	29305.85
1505.00	29341.74
1506.00	29447.06
1507.00	29247.33
1508.00	28989.88
1509.00	28506.16
1510.00	28281.47
1511.00	28224.52
1512.00	28362.61
1513.00	28495.24
1514.00	28626.31
1515.00	28637.23
1516.00	28819.80
1517.00	28825.26
1518.00	28893.91
1519.00	28749.58
1520.00	28564.68
1521.00	28315.80
1522.00	28098.91
1523.00	28020.89
1524.00	28158.99
1525.00	28219.06
1526.00	28325.16
1527.00	28371.19
1528.00	28655.18
1529.00	28860.37
1530.00	29006.26
1531.00	29038.25
1532.00	28945.41
1533.00	28781.57
1534.00	28446.87
1535.00	28346.23
1536.00	28233.10
1537.00	28197.21
1538.00	28103.59
1539.00	28059.12
1540.00	28229.98
1541.00	28273.67
1542.00	28456.23
1543.00	28410.98
1544.00	28590.42
1545.00	28626.31
1546.00	28678.58
1547.00	28450.77
1548.00	28307.22
1549.00	28138.70
1550.00	28095.79
1551.00	27801.66
1552.00	27742.37
1553.00	27875.78
1554.00	27956.14
1555.00	27992.81
1556.00	27904.65
1557.00	28020.89
1558.00	28141.82
1559.00	28226.08
1560.00	28324.38
1561.00	28342.33
1562.00	28354.03
1563.00	28350.13
1564.00	28354.03
1565.00	28327.50
1566.00	28156.64
1567.00	28050.54
1568.00	27978.76
1569.00	27988.91
1570.00	28027.92
1571.00	27931.95
1572.00	27807.12
1573.00	27572.29
1574.00	27453.70
1575.00	27385.05
1576.00	27234.47
1577.00	27097.16
1578.00	27070.64
1579.00	26920.84
1580.00	26998.08
1581.00	26873.25
1582.00	26987.16
1583.00	26817.08
1584.00	26786.65
1585.00	26720.34
1586.00	26512.81
1587.00	26254.57
1588.00	26211.66
1589.00	26331.03
1590.00	26458.20
1591.00	26414.51
1592.00	26484.72
1593.00	26484.72
1594.00	26511.25
1595.00	26465.22
1596.00	26643.10
1597.00	26595.51
1598.00	26574.44
1599.00	26410.60
1600.00	26446.49
1601.00	26437.13
1602.00	26346.63
1603.00	26192.94
1604.00	26106.34
1605.00	26076.69
1606.00	26164.85
1607.00	26175.77
1608.00	26252.23
1609.00	26119.60
1610.00	25937.82
1611.00	25659.29
1612.00	25571.13
1613.00	25575.03
1614.00	25609.36
1615.00	25520.42
1616.00	25409.64
1617.00	25312.89
1618.00	25242.68
1619.00	25053.09
1620.00	24933.73
1621.00	24820.60
1622.00	24865.07
1623.00	24860.39
1624.00	24927.49
1625.00	24781.59
1626.00	24556.90
1627.00	24325.97
1628.00	24312.70
1629.00	24272.92
1630.00	24368.10
1631.00	24116.88
1632.00	24203.48
1633.00	24020.92
1634.00	24142.63
1635.00	24095.82
1636.00	24198.80
1637.00	24270.58
1638.00	24277.60
1639.00	24099.72
1640.00	23889.85
1641.00	23656.57
1642.00	23440.47
1643.00	23234.50
1644.00	23111.23
1645.00	23147.90
1646.00	23497.42
1647.00	23740.05
1648.00	24182.41
1649.00	24244.05
1650.00	24456.26
1651.00	24394.62
1652.00	24389.94
1653.00	24334.55
1654.00	24225.32
1655.00	24125.46
1656.00	23793.89
1657.00	23501.32
1658.00	23170.52
1659.00	23133.86
1660.00	23203.29
1661.00	23417.06
1662.00	23440.47
1663.00	23566.85
1664.00	23721.33
1665.00	23996.73
1666.00	24034.96
1667.00	23954.60
1668.00	23866.44
1669.00	23832.90
1670.00	23730.69
1671.00	23634.73
1672.00	23672.96
1673.00	23686.22
1674.00	23682.32
1675.00	23442.03
1676.00	23317.20
1677.00	23130.73
1678.00	22849.09
1679.00	22691.49
1680.00	22540.92
1681.00	22538.58
1682.00	22413.75
1683.00	22144.59
1684.00	21797.41
1685.00	21389.38
1686.00	20812.82
1687.00	20077.12
1688.00	19114.38
1689.00	18397.39
1690.00	18119.65
1691.00	18185.96
1692.00	18586.19
1693.00	19069.12
1694.00	19697.17
1695.00	20263.58
1696.00	20751.19
1697.00	21287.17
1698.00	21630.45
1699.00	21892.59
1700.00	22039.26
1701.00	22132.11
1702.00	22302.96
1703.00	22367.72
1704.00	22348.22
1705.00	22201.54
1706.00	22215.58
1707.00	22251.47
1708.00	22395.81
1709.00	22142.25
1710.00	22094.66
1711.00	21859.82
1712.00	21920.68
1713.00	21896.49
1714.00	22037.70
1715.00	22139.13
1716.00	22182.82
1717.00	22156.29
1718.00	22220.27
1719.00	22214.80
1720.00	22176.58
1721.00	21910.54
1722.00	21823.94
1723.00	21863.72
1724.00	22004.94
1725.00	22121.96
1726.00	22036.14
1727.00	21990.11
1728.00	21884.01
1729.00	21795.07
1730.00	21797.41
1731.00	21788.83
1732.00	21842.66
1733.00	21599.24
1734.00	21620.31
1735.00	21554.77
1736.00	21596.12
1737.00	21332.42
1738.00	21113.97
1739.00	20957.94
1740.00	20899.42
1741.00	20921.27
1742.00	20927.51
1743.00	20945.45
1744.00	20884.60
1745.00	20739.49
1746.00	20679.41
1747.00	20648.99
1748.00	20690.34
1749.00	20652.89
1750.00	20752.75
1751.00	20797.22
1752.00	20881.48
1753.00	20709.84
1754.00	20697.36
1755.00	20541.32
1756.00	20463.30
1757.00	20335.35
1758.00	20278.40
1759.00	20232.37
1760.00	20246.41
1761.00	20182.44
1762.00	20171.52
1763.00	20079.46
1764.00	20063.85
1765.00	20057.61
1766.00	20070.09
1767.00	19985.05
1768.00	19963.21
1769.00	19883.63
1770.00	19947.61
1771.00	19813.41
1772.00	19861.01
1773.00	19832.92
1774.00	19853.98
1775.00	19791.57
1776.00	19724.47
1777.00	19804.05
1778.00	19788.45
1779.00	19725.25
1780.00	19615.25
1781.00	19487.30
1782.00	19344.53
1783.00	19141.68
1784.00	19140.90
1785.00	19207.22
1786.00	19272.75
1787.00	19168.99
1788.00	19168.99
1789.00	19053.52
1790.00	18913.87
1791.00	18739.89
1792.00	18781.24
1793.00	18756.27
1794.00	18716.48
1795.00	18587.75
1796.00	18455.12
1797.00	18412.21
1798.00	18350.58
1799.00	18377.89
1800.00	18324.83
1801.00	18262.42
1802.00	18164.90
1803.00	18067.38
1804.00	18147.73
1805.00	18247.60
1806.00	18262.42
1807.00	18138.37
1808.00	18015.88
1809.00	17867.65
1810.00	17786.51
1811.00	17790.41
1812.00	17810.70
1813.00	17689.77
1814.00	17614.09
1815.00	17588.35
1816.00	17593.03
1817.00	17492.38
1818.00	17484.58
1819.00	17370.68
1820.00	17407.34
1821.00	17225.56
1822.00	17284.08
1823.00	17233.36
1824.00	17276.27
1825.00	17251.31
1826.00	17251.31
1827.00	17259.11
1828.00	17275.49
1829.00	17134.28
1830.00	16950.94
1831.00	16857.32
1832.00	16917.39
1833.00	17046.90
1834.00	17020.38
1835.00	16837.81
1836.00	16617.80
1837.00	16518.72
1838.00	16451.63
1839.00	16527.30
1840.00	16565.53
1841.00	16593.62
1842.00	16463.33
1843.00	16349.42
1844.00	16223.81
1845.00	16177.00
1846.00	16056.86
1847.00	16071.68
1848.00	16027.99
1849.00	16013.95
1850.00	15896.14
1851.00	15829.82
1852.00	15728.40
1853.00	15754.93
1854.00	15741.66
1855.00	15733.08
1856.00	15630.88
1857.00	15559.10
1858.00	15563.00
1859.00	15478.74
1860.00	15475.62
1861.00	15346.11
1862.00	15296.96
1863.00	15310.22
1864.00	15288.38
1865.00	15275.90
1866.00	15104.26
1867.00	15039.50
1868.00	14978.65
1869.00	14883.47
1870.00	14899.07
1871.00	14842.12
1872.00	14830.41
1873.00	14715.73
1874.00	14650.19
1875.00	14594.02
1876.00	14573.74
1877.00	14526.93
1878.00	14505.86
1879.00	14323.30
1880.00	14228.12
1881.00	14147.76
1882.00	14214.07
1883.00	14157.90
1884.00	14079.10
1885.00	13891.86
1886.00	13862.21
1887.00	13681.21
1888.00	13589.15
1889.00	13494.75
1890.00	13531.42
1891.00	13579.01
1892.00	13522.06
1893.00	13543.90
1894.00	13568.09
1895.00	13573.55
1896.00	13542.34
1897.00	13490.85
1898.00	13450.28
1899.00	13308.29
1900.00	13209.20
1901.00	13099.98
1902.00	13037.56
1903.00	12815.21
1904.00	12351.01
1905.00	11754.17
1906.00	10881.15
1907.00	10065.86
1908.00	9198.31
1909.00	8617.07
1910.00	8174.71
1911.00	8002.29
1912.00	7991.37
1913.00	8255.07
1914.00	8629.56
1915.00	9104.68
1916.00	9516.62
1917.00	9865.36
1918.00	10077.57
1919.00	10139.98
1920.00	10110.33
1921.00	9980.04
1922.00	9804.50
1923.00	9682.02
1924.00	9550.17
1925.00	9554.07
1926.00	9519.74
1927.00	9518.96
1928.00	9564.21
1929.00	9568.89
1930.00	9725.71
1931.00	9801.38
1932.00	9875.50
1933.00	9874.72
1934.00	9883.30
1935.00	10047.14
1936.00	10218.00
1937.00	10302.26
1938.00	10233.60
1939.00	10229.70
1940.00	10270.27
1941.00	10323.32
1942.00	10266.37
1943.00	10208.64
1944.00	10177.43
1945.00	10142.32
1946.00	10136.86
1947.00	10110.33
1948.00	10092.39
1949.00	10097.85
1950.00	10068.20
1951.00	10093.95
1952.00	10039.34
1953.00	10008.91
1954.00	9905.93
1955.00	9853.66
1956.00	9801.38
1957.00	9756.13
1958.00	9739.75
1959.00	9625.84
1960.00	9585.27
1961.00	9491.65
1962.00	9528.32
1963.00	9475.27
1964.00	9450.30
1965.00	9366.04
1966.00	9423.00
1967.00	9344.20
1968.00	9309.87
1969.00	9173.34
1970.00	9192.06
1971.00	9167.88
1972.00	9144.47
1973.00	9122.63
1974.00	9203.77
1975.00	9193.62
1976.00	9194.40
1977.00	9163.20
1978.00	9214.69
1979.00	9203.77
1980.00	9127.31
1981.00	9096.10
1982.00	9178.02
1983.00	9307.53
1984.00	9302.07
1985.00	9180.36
1986.00	9089.86
1987.00	9042.27
1988.00	8977.51
1989.00	8862.83
1990.00	8744.24
1991.00	8655.30
1992.00	8581.96
1993.00	8469.62
1994.00	8499.27
1995.00	8397.06
1996.00	8377.56
1997.00	8148.97
1998.00	8085.77
1999.00	7961.72
2000.00	7982.01
2001.00	7961.72
2002.00	8056.12
2003.00	8077.19
2004.00	8025.70
2005.00	7908.67
2006.00	7845.48
2007.00	7822.07
2008.00	7753.41
2009.00	7696.46
2010.00	7633.27
2011.00	7649.65
2012.00	7590.36
2013.00	7635.61
2014.00	7560.71
2015.00	7609.08
2016.00	7531.06
2017.00	7604.40
2018.00	7541.21
2019.00	7460.85
2020.00	7380.49
2021.00	7329.00
2022.00	7321.98
2023.00	7242.40
2024.00	7169.84
2025.00	7073.10
2026.00	7117.57
2027.00	7132.39
2028.00	7212.75
2029.00	7199.49
2030.00	7228.35
2031.00	7230.70
2032.00	7213.53
2033.00	7114.45
2034.00	7036.43
2035.00	6910.82
2036.00	6938.91
2037.00	6892.10
2038.00	6968.56
2039.00	6975.58
2040.00	6978.70
2041.00	6940.47
2042.00	6860.11
2043.00	6888.20
2044.00	6822.66
2045.00	6853.09
2046.00	6739.18
2047.00	6579.25
>>>>>End Processed Spectral Data<<<<<
