SpectraSuite Data File
++++++++++++++++++++++++++++++++++++
Date: Thu Nov 16 13:32:52 EST 2017
User: cheriyan
Dark Spectrum Present: No
Reference Spectrum Present: No
Number of Sampled Component Spectra: 1
Spectrometers: USB2+H05261
Integration Time (usec): 90000 (USB2+H05261)
Spectra Averaged: 1 (USB2+H05261)
Boxcar Smoothing: 1 (USB2+H05261)
Correct for Electrical Dark: No (USB2+H05261)
Strobe/Lamp Enabled: No (USB2+H05261)
Correct for Detector Non-linearity: No (USB2+H05261)
Correct for Stray Light: No (USB2+H05261)
Number of Pixels in Processed Spectrum: 2048
>>>>>Begin Processed Spectral Data<<<<<
0.00	311.29
1.00	311.29
2.00	301.15
3.00	273.06
4.00	259.80
5.00	267.60
6.00	279.30
7.00	278.52
8.00	244.20
9.00	228.59
10.00	236.39
11.00	238.73
12.00	251.22
13.00	240.30
14.00	276.18
15.00	270.72
16.00	259.02
17.00	247.32
18.00	252.00
19.00	261.36
20.00	262.92
21.00	287.89
22.00	312.85
23.00	757.55
24.00	2367.84
25.00	4159.13
26.00	5546.29
27.00	5698.42
28.00	5567.35
29.00	5358.27
30.00	5142.16
31.00	5064.92
32.00	5109.39
33.00	5167.12
34.00	5136.70
35.00	4954.91
36.00	4772.35
37.00	4625.68
38.00	4690.43
39.00	4758.31
40.00	4859.73
41.00	4798.88
42.00	4779.37
43.00	4802.78
44.00	4936.19
45.00	5110.17
46.00	5359.05
47.00	5585.30
48.00	5787.36
49.00	5754.60
50.00	5723.39
51.00	5630.55
52.00	5695.30
53.00	5816.23
54.00	5996.45
55.00	6224.26
56.00	6447.40
57.00	6720.46
58.00	6979.48
59.00	7158.14
60.00	7257.22
61.00	7298.57
62.00	7167.50
63.00	7066.86
64.00	6765.71
65.00	6558.96
66.00	6268.73
67.00	6090.85
68.00	5939.50
69.00	5915.31
70.00	6036.24
71.00	6358.46
72.00	6660.38
73.00	6863.23
74.00	6917.06
75.00	6861.67
76.00	6711.10
77.00	6472.36
78.00	6181.35
79.00	5873.18
80.00	5579.06
81.00	5350.46
82.00	5160.88
83.00	4936.97
84.00	4752.07
85.00	4628.80
86.00	4504.75
87.00	4495.39
88.00	4469.64
89.00	4631.14
90.00	4778.59
91.00	5162.44
92.00	5561.11
93.00	6036.24
94.00	6389.66
95.00	6573.00
96.00	6596.41
97.00	6503.57
98.00	6366.26
99.00	6213.34
100.00	6073.69
101.00	6078.37
102.00	6264.83
103.00	6479.38
104.00	6568.32
105.00	6537.90
106.00	6439.59
107.00	6474.70
108.00	6483.28
109.00	6586.27
110.00	6608.11
111.00	6595.63
112.00	6558.96
113.00	6521.51
114.00	6599.53
115.00	6738.40
116.00	7076.22
117.00	7460.07
118.00	7850.16
119.00	8117.76
120.00	8298.76
121.00	8378.34
122.00	8400.96
123.00	8407.20
124.00	8537.49
125.00	8784.03
126.00	9018.08
127.00	9296.61
128.00	9452.64
129.00	9543.92
130.00	9420.66
131.00	9156.96
132.00	8728.64
133.00	8271.45
134.00	7699.58
135.00	7063.74
136.00	6260.93
137.00	5495.58
138.00	4855.83
139.00	4610.08
140.00	4755.97
141.00	5359.05
142.00	6111.14
143.00	6953.73
144.00	7773.70
145.00	8467.28
146.00	9052.41
147.00	9489.31
148.00	9823.23
149.00	10022.95
150.00	10046.36
151.00	9806.06
152.00	9325.47
153.00	8502.39
154.00	7630.93
155.00	6666.63
156.00	6005.03
157.00	5690.62
158.00	5977.73
159.00	6768.83
160.00	7864.20
161.00	9095.32
162.00	10121.26
163.00	10935.76
164.00	11575.51
165.00	12205.89
166.00	12677.90
167.00	13045.37
168.00	13312.97
169.00	13518.93
170.00	13646.10
171.00	13691.35
172.00	13842.71
173.00	14029.95
174.00	14004.21
175.00	13965.20
176.00	13925.41
177.00	14217.19
178.00	14572.96
179.00	14878.79
180.00	15105.82
181.00	15178.37
182.00	15232.99
183.00	15281.36
184.00	15481.08
185.00	15515.41
186.00	15453.00
187.00	15323.49
188.00	15122.20
189.00	14981.77
190.00	14805.45
191.00	14966.17
192.00	15107.38
193.00	15447.54
194.00	15513.07
195.00	15364.06
196.00	15034.82
197.00	14915.45
198.00	15111.28
199.00	15250.15
200.00	15374.20
201.00	15464.70
202.00	15449.10
203.00	15410.87
204.00	15248.59
205.00	15185.40
206.00	14981.77
207.00	14941.98
208.00	15128.44
209.00	15363.28
210.00	15493.57
211.00	15371.86
212.00	15274.34
213.00	15382.78
214.00	15673.01
215.00	16144.24
216.00	16458.65
217.00	16796.46
218.00	17029.74
219.00	17273.15
220.00	17381.60
221.00	17326.21
222.00	17085.91
223.00	16478.15
224.00	15881.32
225.00	15245.47
226.00	15008.30
227.00	15112.06
228.00	15609.81
229.00	16244.88
230.00	16858.88
231.00	17429.97
232.00	18016.66
233.00	18386.47
234.00	18493.35
235.00	18426.26
236.00	18491.79
237.00	18616.62
238.00	18563.57
239.00	18452.00
240.00	18207.03
241.00	18077.52
242.00	18072.84
243.00	18193.76
244.00	18594.78
245.00	18709.46
246.00	18846.77
247.00	18891.24
248.00	18826.49
249.00	18813.23
250.00	18697.76
251.00	18799.96
252.00	18812.45
253.00	18923.23
254.00	19115.16
255.00	19456.87
256.00	19832.92
257.00	20243.29
258.00	20597.49
259.00	20585.79
260.00	20467.98
261.00	20163.72
262.00	19846.96
263.00	19502.12
264.00	19304.74
265.00	19284.45
266.00	19416.30
267.00	19559.86
268.00	19767.38
269.00	19853.98
270.00	19836.04
271.00	19875.83
272.00	20156.69
273.00	20410.25
274.00	20465.64
275.00	20267.48
276.00	20008.46
277.00	19694.83
278.00	19357.01
279.00	19477.94
280.00	20105.98
281.00	20851.05
282.00	21354.27
283.00	21572.72
284.00	21674.14
285.00	21698.33
286.00	21636.69
287.00	21365.19
288.00	21057.80
289.00	20535.08
290.00	19988.18
291.00	19445.95
292.00	19204.88
293.00	19521.63
294.00	19903.14
295.00	20370.46
296.00	20368.90
297.00	20476.57
298.00	20524.16
299.00	20742.61
300.00	20832.33
301.00	20585.01
302.00	20403.23
303.00	20303.37
304.00	20354.86
305.00	20357.20
306.00	20176.98
307.00	20100.52
308.00	19864.91
309.00	19907.04
310.00	20084.92
311.00	20460.18
312.00	20431.32
313.00	20208.97
314.00	19626.17
315.00	19119.84
316.00	18753.93
317.00	18806.20
318.00	19126.08
319.00	19480.28
320.00	19875.05
321.00	19985.05
322.00	19892.99
323.00	19588.72
324.00	19328.14
325.00	19132.32
326.00	18997.35
327.00	18921.67
328.00	18487.11
329.00	17760.77
330.00	16900.23
331.00	15994.44
332.00	15229.09
333.00	14533.95
334.00	14455.15
335.00	14694.66
336.00	15438.95
337.00	16628.73
338.00	18332.64
339.00	20164.50
340.00	21530.59
341.00	22207.00
342.00	21931.60
343.00	21280.93
344.00	20771.47
345.00	20858.85
346.00	21389.38
347.00	21983.87
348.00	22316.23
349.00	22167.21
350.00	21427.60
351.00	20479.69
352.00	19842.28
353.00	19795.47
354.00	20275.28
355.00	20870.56
356.00	21451.01
357.00	21937.84
358.00	22153.17
359.00	22365.38
360.00	22407.51
361.00	22983.28
362.00	23353.87
363.00	23924.18
364.00	24011.56
365.00	24099.72
366.00	24013.12
367.00	23882.05
368.00	23664.38
369.00	23325.78
370.00	23021.51
371.00	22760.93
372.00	22530.78
373.00	22121.18
374.00	21671.80
375.00	21222.42
376.00	21052.34
377.00	20957.16
378.00	21299.66
379.00	21839.54
380.00	22689.93
381.00	23342.16
382.00	23896.09
383.00	24183.98
384.00	24131.70
385.00	23831.33
386.00	23582.46
387.00	23718.99
388.00	24204.26
389.00	24724.64
390.00	25371.41
391.00	25762.28
392.00	26129.74
393.00	26486.28
394.00	26843.60
395.00	27127.59
396.00	27177.52
397.00	27387.39
398.00	27608.18
399.00	27851.59
400.00	27733.79
401.00	27644.07
402.00	27508.32
403.00	27761.09
404.00	27883.58
405.00	28007.63
406.00	28147.28
407.00	28197.21
408.00	27985.01
409.00	27868.76
410.00	28016.21
411.00	28302.54
412.00	27726.77
413.00	27074.54
414.00	26361.45
415.00	26203.86
416.00	26033.78
417.00	25991.65
418.00	26326.35
419.00	26715.65
420.00	27275.82
421.00	27760.31
422.00	28144.94
423.00	28531.13
424.00	28677.80
425.00	28941.50
426.00	28884.55
427.00	28617.73
428.00	28386.02
429.00	28357.93
430.00	28532.69
431.00	28575.60
432.00	28469.50
433.00	28437.51
434.00	28444.53
435.00	28641.92
436.00	28805.75
437.00	29065.55
438.00	29342.52
439.00	29709.98
440.00	30278.73
441.00	30771.80
442.00	30820.95
443.00	30798.33
444.00	30523.71
445.00	30504.20
446.00	30266.25
447.00	30218.66
448.00	30064.96
449.00	29805.94
450.00	29590.61
451.00	29211.45
452.00	28733.20
453.00	27967.06
454.00	27696.34
455.00	27682.30
456.00	28015.43
457.00	28428.93
458.00	28824.48
459.00	29230.17
460.00	29509.47
461.00	29717.78
462.00	29742.75
463.00	29537.56
464.00	29401.03
465.00	29297.27
466.00	29213.79
467.00	29220.81
468.00	29340.96
469.00	29869.14
470.00	30365.33
471.00	30901.31
472.00	31087.00
473.00	31095.58
474.00	31204.02
475.00	31268.78
476.00	31470.84
477.00	31716.60
478.00	31976.40
479.00	32148.82
480.00	31693.19
481.00	31315.59
482.00	30745.28
483.00	30479.24
484.00	30497.96
485.00	30588.46
486.00	30856.84
487.00	30818.61
488.00	30954.36
489.00	30991.03
490.00	30884.15
491.00	30783.51
492.00	30871.67
493.00	31001.96
494.00	31148.63
495.00	31220.41
496.00	31528.58
497.00	31871.07
498.00	32072.36
499.00	32239.32
500.00	32076.26
501.00	32200.31
502.00	32233.08
503.00	32485.86
504.00	32559.19
505.00	32599.76
506.00	32727.71
507.00	32920.42
508.00	32918.85
509.00	32926.66
510.00	32801.83
511.00	32590.40
512.00	32362.59
513.00	32204.21
514.00	32029.45
515.00	32005.27
516.00	31914.76
517.00	31807.10
518.00	31470.84
519.00	31219.63
520.00	31496.59
521.00	31722.84
522.00	31771.99
523.00	32027.11
524.00	32158.96
525.00	32595.86
526.00	32086.40
527.00	31889.02
528.00	31138.49
529.00	30826.42
530.00	30397.32
531.00	30503.42
532.00	30829.54
533.00	31246.15
534.00	31512.19
535.00	31701.78
536.00	31584.75
537.00	31395.17
538.00	31354.60
539.00	31523.12
540.00	31866.39
541.00	31945.97
542.00	32100.45
543.00	31974.06
544.00	31968.60
545.00	31851.57
546.00	31523.90
547.00	31232.11
548.00	30874.01
549.00	30807.69
550.00	30707.83
551.00	30939.54
552.00	31165.79
553.00	31461.48
554.00	31712.70
555.00	32313.44
556.00	32821.33
557.00	33325.33
558.00	33630.38
559.00	33986.14
560.00	34227.99
561.00	34087.56
562.00	33728.68
563.00	33213.76
564.00	32916.51
565.00	33070.21
566.00	33415.83
567.00	33560.16
568.00	33628.04
569.00	33515.69
570.00	33961.95
571.00	34295.87
572.00	34674.26
573.00	34778.80
574.00	34783.48
575.00	34831.85
576.00	34945.76
577.00	34931.72
578.00	34950.44
579.00	34686.74
580.00	34613.40
581.00	34448.00
582.00	34662.55
583.00	34623.54
584.00	34953.56
585.00	35164.21
586.00	35783.67
587.00	35863.25
588.00	36123.83
589.00	36606.76
590.00	37219.20
591.00	37768.44
592.00	37766.88
593.00	37994.70
594.00	37924.48
595.00	37780.93
596.00	37713.83
597.00	37975.19
598.00	38770.19
599.00	39367.81
600.00	39900.67
601.00	39829.68
602.00	39855.42
603.00	39694.71
604.00	39918.62
605.00	40289.20
606.00	40354.74
607.00	40418.71
608.00	40427.29
609.00	40875.12
610.00	41429.82
611.00	41729.41
612.00	41971.27
613.00	42201.42
614.00	42382.42
615.00	42393.34
616.00	42210.78
617.00	42340.29
618.00	42687.47
619.00	42902.80
620.00	42990.18
621.00	43049.47
622.00	43239.06
623.00	43661.13
624.00	43629.15
625.00	43631.49
626.00	43429.42
627.00	43677.52
628.00	43852.28
629.00	44102.71
630.00	44506.07
631.00	44403.08
632.00	43498.08
633.00	42565.76
634.00	41207.47
635.00	39611.23
636.00	37640.50
637.00	36879.04
638.00	37468.08
639.00	38538.48
640.00	39642.43
641.00	40609.86
642.00	41621.75
643.00	42682.79
644.00	43658.79
645.00	44485.78
646.00	45283.90
647.00	45947.84
648.00	46404.24
649.00	46659.36
650.00	46602.41
651.00	46379.28
652.00	45869.82
653.00	45899.47
654.00	46437.01
655.00	47656.43
656.00	48654.28
657.00	49617.80
658.00	49979.80
659.00	50352.72
660.00	50337.12
661.00	50305.91
662.00	50024.27
663.00	49839.37
664.00	49746.53
665.00	49759.01
666.00	49783.19
667.00	49665.39
668.00	49192.60
669.00	48612.15
670.00	48190.07
671.00	48292.27
672.00	48897.69
673.00	49808.16
674.00	50766.22
675.00	51372.42
676.00	51572.92
677.00	51463.70
678.00	51227.31
679.00	50968.29
680.00	50976.09
681.00	51371.64
682.00	51903.72
683.00	52468.57
684.00	53010.01
685.00	53514.01
686.00	53848.71
687.00	53797.99
688.00	53483.58
689.00	53105.98
690.00	52681.56
691.00	52495.10
692.00	52501.34
693.00	52999.09
694.00	53595.93
695.00	54060.13
696.00	54028.15
697.00	53974.31
698.00	54014.10
699.00	54195.88
700.00	54459.58
701.00	54612.50
702.00	54547.75
703.00	54182.62
704.00	53567.84
705.00	53023.28
706.00	52728.37
707.00	52933.56
708.00	53440.67
709.00	53989.14
710.00	54312.13
711.00	54605.48
712.00	54773.22
713.00	54822.37
714.00	54716.26
715.00	54502.49
716.00	53986.80
717.00	53624.01
718.00	53144.98
719.00	53240.95
720.00	53182.43
721.00	53099.73
722.00	52910.15
723.00	52752.55
724.00	52865.68
725.00	52669.86
726.00	52807.17
727.00	53109.10
728.00	53460.96
729.00	53721.54
730.00	53919.70
731.00	54190.42
732.00	54449.44
733.00	54500.93
734.00	54458.80
735.00	54227.87
736.00	53705.15
737.00	53276.05
738.00	52848.52
739.00	53051.36
740.00	53411.81
741.00	54069.50
742.00	54366.74
743.00	54607.04
744.00	54617.96
745.00	54938.61
746.00	55310.76
747.00	55743.76
748.00	55978.59
749.00	56115.90
750.00	56094.06
751.00	55859.23
752.00	55669.64
753.00	55396.58
754.00	55413.74
755.00	55292.82
756.00	55275.65
757.00	54997.13
758.00	54774.78
759.00	54429.16
760.00	54191.20
761.00	54082.76
762.00	54294.19
763.00	54748.25
764.00	55220.26
765.00	55668.08
766.00	56027.74
767.00	56315.63
768.00	56321.87
769.00	56226.69
770.00	55943.48
771.00	55719.57
772.00	55615.81
773.00	55537.79
774.00	55642.34
775.00	55456.65
776.00	55458.99
777.00	55513.61
778.00	55710.99
779.00	56067.53
780.00	56268.04
781.00	56677.63
782.00	56785.30
783.00	56788.42
784.00	56529.40
785.00	56115.90
786.00	55778.87
787.00	55470.70
788.00	55473.82
789.00	55528.43
790.00	55558.86
791.00	55659.50
792.00	55538.57
793.00	55464.45
794.00	55242.10
795.00	54967.48
796.00	54909.75
797.00	54805.20
798.00	55070.46
799.00	55153.94
800.00	55359.91
801.00	55460.55
802.00	55569.00
803.00	55567.44
804.00	55783.55
805.00	55985.61
806.00	56149.45
807.00	55782.77
808.00	55146.14
809.00	54099.92
810.00	52835.25
811.00	51398.94
812.00	50079.66
813.00	49537.44
814.00	49920.51
815.00	51226.52
816.00	52672.98
817.00	53684.09
818.00	53940.77
819.00	53326.77
820.00	52591.06
821.00	52190.83
822.00	52504.46
823.00	53074.77
824.00	53656.78
825.00	54224.75
826.00	54578.95
827.00	54979.18
828.00	55188.27
829.00	55573.68
830.00	55798.37
831.00	55847.52
832.00	55676.66
833.00	55333.38
834.00	55203.10
835.00	55285.01
836.00	55671.20
837.00	55941.92
838.00	56158.03
839.00	56225.13
840.00	56373.36
841.00	56376.48
842.00	56303.93
843.00	56133.07
844.00	55747.66
845.00	55388.78
846.00	55057.98
847.00	55038.48
848.00	55146.14
849.00	55469.92
850.00	55827.24
851.00	56280.52
852.00	56607.42
853.00	56908.57
854.00	57065.38
855.00	57103.61
856.00	57039.64
857.00	56942.89
858.00	56815.72
859.00	56697.14
860.00	56491.17
861.00	56485.71
862.00	56701.82
863.00	56880.48
864.00	56619.90
865.00	55935.68
866.00	55153.16
867.00	54242.70
868.00	53351.73
869.00	52649.57
870.00	52364.81
871.00	52595.74
872.00	53098.17
873.00	53918.92
874.00	54671.79
875.00	55238.98
876.00	55686.81
877.00	55870.93
878.00	56013.70
879.00	56168.96
880.00	56447.48
881.00	56814.16
882.00	56966.30
883.00	57051.34
884.00	56931.19
885.00	56613.66
886.00	56197.82
887.00	55839.72
888.00	55714.11
889.00	55714.11
890.00	55968.45
891.00	56342.94
892.00	56741.61
893.00	56949.13
894.00	56988.92
895.00	56978.00
896.00	56885.94
897.00	56769.69
898.00	56632.38
899.00	56407.69
900.00	56189.24
901.00	55735.18
902.00	55219.48
903.00	54636.69
904.00	54181.84
905.00	54103.82
906.00	54337.88
907.00	54832.51
908.00	55210.90
909.00	55632.19
910.00	55664.96
911.00	55682.91
912.00	55369.27
913.00	55373.17
914.00	55274.87
915.00	55382.54
916.00	55416.86
917.00	55678.22
918.00	55927.88
919.00	56093.28
920.00	56310.95
921.00	56494.29
922.00	56732.25
923.00	56651.89
924.00	56377.26
925.00	55868.59
926.00	55522.19
927.00	55121.96
928.00	54769.32
929.00	54499.37
930.00	54388.59
931.00	54653.85
932.00	54956.56
933.00	55388.78
934.00	55566.66
935.00	55512.05
936.00	55510.49
937.00	55534.67
938.00	55572.12
939.00	55434.03
940.00	55273.31
941.00	55057.98
942.00	54814.57
943.00	54571.93
944.00	54301.21
945.00	54164.68
946.00	54150.63
947.00	54044.53
948.00	53820.62
949.00	53499.19
950.00	53358.75
951.00	53420.39
952.00	53283.08
953.00	53264.35
954.00	53404.00
955.00	53772.25
956.00	54208.37
957.00	54362.06
958.00	54493.13
959.00	54477.53
960.00	54314.47
961.00	54135.03
962.00	54093.68
963.00	54067.94
964.00	54114.75
965.00	53975.09
966.00	54053.11
967.00	54248.94
968.00	54527.46
969.00	54679.60
970.00	54972.16
971.00	55125.86
972.00	55249.91
973.00	54923.01
974.00	54740.45
975.00	54558.67
976.00	54627.32
977.00	54593.00
978.00	54438.52
979.00	54223.19
980.00	54188.86
981.00	54486.89
982.00	54581.29
983.00	54535.26
984.00	54302.77
985.00	54260.64
986.00	54151.41
987.00	54086.66
988.00	54199.79
989.00	54096.80
990.00	53996.16
991.00	53577.20
992.00	53397.76
993.00	53226.12
994.00	53290.10
995.00	53429.75
996.00	53591.25
997.00	53881.47
998.00	54142.83
999.00	54383.91
1000.00	54434.62
1001.00	54429.94
1002.00	54355.04
1003.00	54140.49
1004.00	54156.10
1005.00	54129.57
1006.00	54234.89
1007.00	54032.05
1008.00	53940.77
1009.00	53649.76
1010.00	53614.65
1011.00	53509.33
1012.00	53520.25
1013.00	53399.32
1014.00	53440.67
1015.00	53510.11
1016.00	53669.26
1017.00	53915.80
1018.00	54100.70
1019.00	54312.91
1020.00	54068.72
1021.00	53891.62
1022.00	53545.22
1023.00	53187.89
1024.00	52939.80
1025.00	52879.72
1026.00	53187.89
1027.00	53329.11
1028.00	53457.06
1029.00	53421.95
1030.00	53535.07
1031.00	53659.90
1032.00	53841.68
1033.00	54013.32
1034.00	53910.34
1035.00	53943.89
1036.00	53882.25
1037.00	54019.56
1038.00	53864.31
1039.00	53613.09
1040.00	53371.24
1041.00	53146.54
1042.00	53006.11
1043.00	52987.39
1044.00	52893.77
1045.00	52916.39
1046.00	52622.26
1047.00	52506.80
1048.00	52293.81
1049.00	52206.43
1050.00	52157.28
1051.00	52109.69
1052.00	52165.08
1053.00	52342.96
1054.00	52524.74
1055.00	52504.46
1056.00	52305.51
1057.00	51881.09
1058.00	51433.27
1059.00	50964.38
1060.00	50686.64
1061.00	50561.03
1062.00	50679.62
1063.00	50867.64
1064.00	50962.04
1065.00	50972.19
1066.00	50946.44
1067.00	50973.75
1068.00	51043.18
1069.00	51214.04
1070.00	51741.44
1071.00	52183.02
1072.00	52558.29
1073.00	52534.88
1074.00	52357.78
1075.00	52046.49
1076.00	51633.00
1077.00	51296.74
1078.00	51180.49
1079.00	51221.84
1080.00	51256.95
1081.00	51244.47
1082.00	51310.78
1083.00	51511.29
1084.00	51759.39
1085.00	51909.96
1086.00	51753.93
1087.00	51562.00
1088.00	51398.16
1089.00	51330.29
1090.00	51103.26
1091.00	50896.51
1092.00	50754.52
1093.00	50854.38
1094.00	51023.68
1095.00	51184.40
1096.00	51050.98
1097.00	50880.91
1098.00	50601.60
1099.00	50507.20
1100.00	50227.90
1101.00	50009.45
1102.00	49580.35
1103.00	49290.12
1104.00	49249.55
1105.00	49464.10
1106.00	49720.00
1107.00	49877.60
1108.00	50111.65
1109.00	50344.92
1110.00	50572.74
1111.00	50571.96
1112.00	50703.81
1113.00	50586.00
1114.00	50565.71
1115.00	50158.46
1116.00	49829.23
1117.00	49252.67
1118.00	48848.54
1119.00	48610.59
1120.00	48551.29
1121.00	48628.53
1122.00	48641.01
1123.00	48701.87
1124.00	48673.78
1125.00	48642.57
1126.00	48630.87
1127.00	48746.34
1128.00	48743.22
1129.00	48537.25
1130.00	48144.04
1131.00	47594.79
1132.00	47174.28
1133.00	46699.93
1134.00	46549.35
1135.00	46498.64
1136.00	46683.55
1137.00	46980.01
1138.00	47249.95
1139.00	47736.79
1140.00	48031.69
1141.00	48299.30
1142.00	48371.85
1143.00	48311.78
1144.00	48357.03
1145.00	48299.30
1146.00	48335.18
1147.00	48248.58
1148.00	48119.85
1149.00	48002.05
1150.00	47963.04
1151.00	47824.95
1152.00	47788.28
1153.00	47628.34
1154.00	47328.75
1155.00	47150.87
1156.00	46910.58
1157.00	46944.90
1158.00	46522.05
1159.00	46433.89
1160.00	46149.90
1161.00	46101.53
1162.00	45910.39
1163.00	45816.77
1164.00	45847.19
1165.00	45865.92
1166.00	45841.73
1167.00	45888.54
1168.00	46131.96
1169.00	46213.10
1170.00	46308.28
1171.00	46174.87
1172.00	46187.35
1173.00	46105.43
1174.00	46025.07
1175.00	45830.81
1176.00	45478.95
1177.00	45081.84
1178.00	44726.86
1179.00	44533.37
1180.00	44378.12
1181.00	44506.07
1182.00	44538.83
1183.00	44623.09
1184.00	44782.25
1185.00	44967.93
1186.00	45244.90
1187.00	45409.51
1188.00	45592.86
1189.00	45508.60
1190.00	45459.45
1191.00	45393.91
1192.00	45424.34
1193.00	45278.44
1194.00	45294.83
1195.00	45391.57
1196.00	45573.35
1197.00	45567.11
1198.00	45441.50
1199.00	45529.66
1200.00	45715.34
1201.00	45875.28
1202.00	45915.07
1203.00	45898.69
1204.00	45928.33
1205.00	45904.93
1206.00	45873.72
1207.00	45925.99
1208.00	45933.79
1209.00	45882.30
1210.00	45795.70
1211.00	45663.85
1212.00	45713.78
1213.00	45701.30
1214.00	45639.67
1215.00	45519.52
1216.00	45392.35
1217.00	45393.91
1218.00	45294.05
1219.00	45219.15
1220.00	45183.26
1221.00	44844.66
1222.00	44586.43
1223.00	44321.94
1224.00	44176.83
1225.00	44019.24
1226.00	43689.22
1227.00	43559.71
1228.00	43401.33
1229.00	43505.88
1230.00	43652.55
1231.00	44034.84
1232.00	44080.09
1233.00	44255.63
1234.00	44044.20
1235.00	43990.37
1236.00	43860.08
1237.00	43852.28
1238.00	43767.24
1239.00	43582.34
1240.00	43115.79
1241.00	42576.69
1242.00	42024.32
1243.00	41147.40
1244.00	40016.92
1245.00	38586.07
1246.00	37766.88
1247.00	37404.88
1248.00	37273.03
1249.00	37362.75
1250.00	37422.05
1251.00	37965.05
1252.00	38765.51
1253.00	39733.71
1254.00	40633.26
1255.00	41216.05
1256.00	41659.98
1257.00	41774.66
1258.00	41834.74
1259.00	41539.05
1260.00	41535.15
1261.00	41273.01
1262.00	41317.48
1263.00	41060.02
1264.00	41062.36
1265.00	41117.75
1266.00	41065.48
1267.00	41148.18
1268.00	41196.55
1269.00	41475.07
1270.00	41414.22
1271.00	41303.43
1272.00	41343.22
1273.00	41326.84
1274.00	41510.96
1275.00	41278.47
1276.00	41116.97
1277.00	40680.85
1278.00	40473.32
1279.00	40207.28
1280.00	40094.94
1281.00	39908.47
1282.00	39949.82
1283.00	39940.46
1284.00	39850.74
1285.00	39938.12
1286.00	40189.34
1287.00	40389.84
1288.00	40505.31
1289.00	40566.16
1290.00	40861.07
1291.00	40902.42
1292.00	40941.43
1293.00	40706.60
1294.00	40661.35
1295.00	40590.35
1296.00	40719.86
1297.00	40634.82
1298.00	40413.25
1299.00	40247.07
1300.00	40062.17
1301.00	40183.10
1302.00	40112.88
1303.00	40164.37
1304.00	40114.44
1305.00	40096.50
1306.00	39993.51
1307.00	39884.29
1308.00	39870.25
1309.00	39869.47
1310.00	39948.26
1311.00	40023.16
1312.00	40192.46
1313.00	39976.35
1314.00	39768.04
1315.00	39612.01
1316.00	39548.03
1317.00	39528.53
1318.00	39466.89
1319.00	39409.16
1320.00	39299.16
1321.00	39140.00
1322.00	38991.76
1323.00	38982.40
1324.00	39006.59
1325.00	38944.95
1326.00	38781.90
1327.00	38589.19
1328.00	38427.70
1329.00	38392.59
1330.00	38352.02
1331.00	38675.79
1332.00	38786.58
1333.00	39090.85
1334.00	39231.28
1335.00	39383.41
1336.00	39448.17
1337.00	39436.47
1338.00	39646.33
1339.00	39487.18
1340.00	39447.39
1341.00	39427.88
1342.00	39555.83
1343.00	39619.03
1344.00	39348.31
1345.00	39171.99
1346.00	39058.86
1347.00	39113.47
1348.00	39059.64
1349.00	39035.45
1350.00	38880.98
1351.00	39023.75
1352.00	38849.77
1353.00	38806.08
1354.00	38541.60
1355.00	38587.63
1356.00	38447.98
1357.00	38492.45
1358.00	38307.55
1359.00	38381.66
1360.00	38361.38
1361.00	38453.44
1362.00	38568.91
1363.00	38524.44
1364.00	38280.24
1365.00	38064.13
1366.00	37759.86
1367.00	37817.60
1368.00	37543.75
1369.00	37496.94
1370.00	37349.49
1371.00	37295.66
1372.00	37235.58
1373.00	37086.57
1374.00	37146.64
1375.00	37153.66
1376.00	37189.55
1377.00	37011.67
1378.00	36960.18
1379.00	36785.42
1380.00	36602.08
1381.00	36334.48
1382.00	36251.00
1383.00	36308.73
1384.00	36309.51
1385.00	36404.69
1386.00	36438.24
1387.00	36595.84
1388.00	36643.43
1389.00	36662.93
1390.00	36688.68
1391.00	36619.24
1392.00	36467.89
1393.00	36158.94
1394.00	35938.93
1395.00	35707.99
1396.00	35817.22
1397.00	35802.39
1398.00	35900.70
1399.00	35688.49
1400.00	35614.37
1401.00	35420.11
1402.00	35274.99
1403.00	35072.15
1404.00	34891.93
1405.00	34805.33
1406.00	34739.01
1407.00	34900.51
1408.00	35042.50
1409.00	35160.31
1410.00	35363.93
1411.00	35343.65
1412.00	35193.08
1413.00	35004.27
1414.00	34944.20
1415.00	34987.89
1416.00	34734.33
1417.00	34411.34
1418.00	34042.31
1419.00	33699.03
1420.00	33425.19
1421.00	33266.81
1422.00	33274.62
1423.00	33191.92
1424.00	33140.43
1425.00	33180.99
1426.00	33407.25
1427.00	33594.49
1428.00	33710.74
1429.00	33745.06
1430.00	33851.95
1431.00	33985.36
1432.00	34290.41
1433.00	34354.38
1434.00	34406.66
1435.00	34283.39
1436.00	34196.01
1437.00	33983.02
1438.00	33736.48
1439.00	33585.13
1440.00	33442.35
1441.00	33522.71
1442.00	33671.73
1443.00	33884.72
1444.00	33885.50
1445.00	33796.56
1446.00	33789.53
1447.00	33875.35
1448.00	33793.43
1449.00	33741.16
1450.00	33649.10
1451.00	33692.79
1452.00	33464.98
1453.00	33286.32
1454.00	32950.84
1455.00	32840.06
1456.00	32699.62
1457.00	32715.23
1458.00	32878.29
1459.00	32853.32
1460.00	32847.86
1461.00	32598.98
1462.00	32414.86
1463.00	32254.14
1464.00	32070.02
1465.00	32126.97
1466.00	31953.77
1467.00	31821.14
1468.00	31565.24
1469.00	31639.36
1470.00	31675.25
1471.00	31640.92
1472.00	31469.28
1473.00	31410.77
1474.00	31227.43
1475.00	31178.28
1476.00	30957.49
1477.00	31058.91
1478.00	31028.48
1479.00	30903.65
1480.00	30554.91
1481.00	30340.36
1482.00	30302.14
1483.00	30277.17
1484.00	30281.07
1485.00	30276.39
1486.00	30355.19
1487.00	30402.78
1488.00	30474.56
1489.00	30494.06
1490.00	30393.42
1491.00	30437.89
1492.00	30362.21
1493.00	30181.21
1494.00	29709.20
1495.00	29108.46
1496.00	28520.21
1497.00	28041.18
1498.00	27989.69
1499.00	28087.21
1500.00	28391.48
1501.00	28605.25
1502.00	28809.65
1503.00	29021.08
1504.00	29110.80
1505.00	29102.22
1506.00	28873.63
1507.00	28645.04
1508.00	28510.07
1509.00	28363.39
1510.00	28172.25
1511.00	28091.89
1512.00	28070.82
1513.00	28222.18
1514.00	28315.80
1515.00	28556.88
1516.00	28662.98
1517.00	28736.32
1518.00	28599.01
1519.00	28421.91
1520.00	28300.20
1521.00	28151.18
1522.00	27997.49
1523.00	27886.70
1524.00	27955.36
1525.00	28182.39
1526.00	28276.79
1527.00	28336.87
1528.00	28503.04
1529.00	28674.68
1530.00	28776.89
1531.00	28668.44
1532.00	28612.27
1533.00	28520.99
1534.00	28410.20
1535.00	28250.27
1536.00	28130.90
1537.00	28112.95
1538.00	28112.17
1539.00	28013.09
1540.00	27960.04
1541.00	27820.39
1542.00	27993.59
1543.00	28134.80
1544.00	28325.16
1545.00	28325.94
1546.00	28283.03
1547.00	28169.91
1548.00	28029.48
1549.00	27999.05
1550.00	27892.94
1551.00	27772.80
1552.00	27557.47
1553.00	27550.45
1554.00	27505.20
1555.00	27594.14
1556.00	27775.14
1557.00	28034.16
1558.00	28060.68
1559.00	28014.65
1560.00	28023.23
1561.00	28125.44
1562.00	28201.11
1563.00	28154.30
1564.00	28079.41
1565.00	27999.83
1566.00	28000.61
1567.00	28034.94
1568.00	27959.26
1569.00	27851.59
1570.00	27711.16
1571.00	27632.36
1572.00	27442.78
1573.00	27257.88
1574.00	27168.16
1575.00	27111.21
1576.00	27025.39
1577.00	26817.86
1578.00	26748.42
1579.00	26758.56
1580.00	26725.02
1581.00	26668.06
1582.00	26613.45
1583.00	26604.09
1584.00	26642.32
1585.00	26545.58
1586.00	26565.86
1587.00	26329.47
1588.00	26350.53
1589.00	26352.87
1590.00	26405.14
1591.00	26369.26
1592.00	26242.09
1593.00	26205.42
1594.00	26223.36
1595.00	26118.04
1596.00	26236.63
1597.00	26171.87
1598.00	26325.57
1599.00	26218.68
1600.00	26238.19
1601.00	26087.61
1602.00	26108.68
1603.00	25861.36
1604.00	25776.32
1605.00	25731.07
1606.00	25821.57
1607.00	25879.30
1608.00	25916.75
1609.00	26011.93
1610.00	25966.68
1611.00	25779.44
1612.00	25561.77
1613.00	25514.18
1614.00	25397.93
1615.00	25343.32
1616.00	25177.14
1617.00	25170.12
1618.00	25190.41
1619.00	25039.83
1620.00	24920.46
1621.00	24851.03
1622.00	24892.38
1623.00	24708.26
1624.00	24626.34
1625.00	24648.18
1626.00	24611.51
1627.00	24308.80
1628.00	24105.18
1629.00	24105.18
1630.00	24148.09
1631.00	24070.85
1632.00	24006.09
1633.00	23886.73
1634.00	23940.56
1635.00	24057.59
1636.00	24205.82
1637.00	24229.23
1638.00	23978.79
1639.00	23834.46
1640.00	23619.13
1641.00	23392.09
1642.00	23085.48
1643.00	22837.39
1644.00	22796.04
1645.00	22908.38
1646.00	23250.88
1647.00	23527.07
1648.00	23825.87
1649.00	24018.58
1650.00	24285.40
1651.00	24332.99
1652.00	24287.74
1653.00	24235.47
1654.00	24158.23
1655.00	23923.40
1656.00	23564.51
1657.00	23251.66
1658.00	23058.18
1659.00	22960.66
1660.00	23030.87
1661.00	23192.37
1662.00	23421.74
1663.00	23551.25
1664.00	23711.19
1665.00	23810.27
1666.00	23811.83
1667.00	23614.44
1668.00	23522.38
1669.00	23601.96
1670.00	23721.33
1671.00	23660.48
1672.00	23516.92
1673.00	23331.24
1674.00	23261.02
1675.00	23173.64
1676.00	23122.93
1677.00	23023.07
1678.00	22858.45
1679.00	22693.83
1680.00	22526.88
1681.00	22273.32
1682.00	22080.61
1683.00	21805.99
1684.00	21585.20
1685.00	21199.01
1686.00	20718.42
1687.00	20002.22
1688.00	19198.63
1689.00	18380.23
1690.00	17933.18
1691.00	18067.38
1692.00	18471.51
1693.00	19147.14
1694.00	19666.74
1695.00	20241.73
1696.00	20758.99
1697.00	21190.43
1698.00	21539.17
1699.00	21692.87
1700.00	21834.86
1701.00	21989.33
1702.00	22192.18
1703.00	22300.62
1704.00	22263.18
1705.00	22170.33
1706.00	22068.91
1707.00	22104.02
1708.00	22078.27
1709.00	22157.85
1710.00	21971.39
1711.00	21838.76
1712.00	21613.29
1713.00	21612.51
1714.00	21657.76
1715.00	21869.97
1716.00	22011.18
1717.00	22083.73
1718.00	22028.34
1719.00	22005.72
1720.00	21893.37
1721.00	21730.31
1722.00	21692.87
1723.00	21651.52
1724.00	21745.14
1725.00	21637.47
1726.00	21629.67
1727.00	21694.43
1728.00	21671.80
1729.00	21721.73
1730.00	21605.49
1731.00	21703.79
1732.00	21699.11
1733.00	21660.10
1734.00	21628.89
1735.00	21511.86
1736.00	21401.86
1737.00	21174.83
1738.00	21016.45
1739.00	20953.26
1740.00	20831.55
1741.00	20782.40
1742.00	20685.65
1743.00	20798.78
1744.00	20847.93
1745.00	20802.68
1746.00	20773.81
1747.00	20813.60
1748.00	20826.09
1749.00	20792.54
1750.00	20763.67
1751.00	20848.71
1752.00	20786.30
1753.00	20631.04
1754.00	20440.68
1755.00	20411.81
1756.00	20333.01
1757.00	20297.13
1758.00	20177.76
1759.00	20210.53
1760.00	20213.65
1761.00	20099.74
1762.00	19988.96
1763.00	19935.90
1764.00	19981.15
1765.00	19961.65
1766.00	19919.52
1767.00	19889.87
1768.00	19805.61
1769.00	19691.71
1770.00	19630.07
1771.00	19677.66
1772.00	19584.82
1773.00	19625.39
1774.00	19625.39
1775.00	19761.92
1776.00	19609.79
1777.00	19544.25
1778.00	19480.28
1779.00	19540.35
1780.00	19517.73
1781.00	19384.32
1782.00	19310.98
1783.00	19108.91
1784.00	19089.41
1785.00	19046.50
1786.00	19114.38
1787.00	19069.12
1788.00	18898.27
1789.00	18865.50
1790.00	18792.94
1791.00	18823.37
1792.00	18704.00
1793.00	18575.27
1794.00	18523.78
1795.00	18544.84
1796.00	18502.72
1797.00	18388.81
1798.00	18150.85
1799.00	18072.06
1800.00	17937.09
1801.00	17947.23
1802.00	17934.74
1803.00	17987.80
1804.00	18064.25
1805.00	18116.53
1806.00	18170.36
1807.00	18092.34
1808.00	18052.55
1809.00	17845.80
1810.00	17758.42
1811.00	17667.14
1812.00	17696.79
1813.00	17739.70
1814.00	17788.85
1815.00	17716.30
1816.00	17621.11
1817.00	17494.72
1818.00	17402.66
1819.00	17362.87
1820.00	17224.00
1821.00	17228.68
1822.00	17099.95
1823.00	17111.66
1824.00	17060.16
1825.00	17047.68
1826.00	17041.44
1827.00	17052.36
1828.00	17059.38
1829.00	16949.38
1830.00	16799.59
1831.00	16791.00
1832.00	16815.97
1833.00	16816.75
1834.00	16586.60
1835.00	16395.45
1836.00	16364.25
1837.00	16358.78
1838.00	16410.28
1839.00	16325.24
1840.00	16400.91
1841.00	16382.19
1842.00	16448.50
1843.00	16317.43
1844.00	16240.20
1845.00	16111.47
1846.00	16077.14
1847.00	15985.08
1848.00	15881.32
1849.00	15845.43
1850.00	15747.90
1851.00	15767.41
1852.00	15608.25
1853.00	15633.22
1854.00	15566.90
1855.00	15564.56
1856.00	15479.52
1857.00	15468.60
1858.00	15385.12
1859.00	15293.84
1860.00	15213.48
1861.00	15126.88
1862.00	15130.78
1863.00	15094.11
1864.00	15120.64
1865.00	15051.99
1866.00	14935.74
1867.00	14945.10
1868.00	14906.87
1869.00	14877.23
1870.00	14832.76
1871.00	14802.33
1872.00	14828.07
1873.00	14803.89
1874.00	14721.19
1875.00	14622.89
1876.00	14456.71
1877.00	14411.46
1878.00	14330.32
1879.00	14273.37
1880.00	14356.07
1881.00	14260.88
1882.00	14281.17
1883.00	14022.15
1884.00	13974.56
1885.00	13821.64
1886.00	13717.10
1887.00	13561.06
1888.00	13459.64
1889.00	13437.80
1890.00	13409.71
1891.00	13436.24
1892.00	13533.76
1893.00	13657.03
1894.00	13648.44
1895.00	13452.62
1896.00	13287.22
1897.00	13167.07
1898.00	13156.15
1899.00	13103.10
1900.00	13082.03
1901.00	13007.14
1902.00	12894.01
1903.00	12642.79
1904.00	12211.36
1905.00	11617.64
1906.00	10753.98
1907.00	9912.95
1908.00	9068.02
1909.00	8439.19
1910.00	8032.72
1911.00	7900.87
1912.00	7976.55
1913.00	8231.66
1914.00	8571.82
1915.00	9089.08
1916.00	9514.28
1917.00	9854.44
1918.00	10007.35
1919.00	10066.64
1920.00	9990.19
1921.00	9852.88
1922.00	9751.45
1923.00	9641.45
1924.00	9517.40
1925.00	9360.58
1926.00	9326.25
1927.00	9351.22
1928.00	9478.39
1929.00	9592.30
1930.00	9674.21
1931.00	9755.35
1932.00	9852.88
1933.00	9966.00
1934.00	9980.82
1935.00	10018.27
1936.00	10032.32
1937.00	10090.05
1938.00	10143.88
1939.00	10150.12
1940.00	10177.43
1941.00	10154.80
1942.00	10164.95
1943.00	10204.74
1944.00	10166.51
1945.00	10168.07
1946.00	10123.60
1947.00	10086.15
1948.00	10133.74
1949.00	10062.74
1950.00	10065.08
1951.00	9937.91
1952.00	9993.31
1953.00	9988.63
1954.00	9895.79
1955.00	9757.69
1956.00	9728.83
1957.00	9671.09
1958.00	9582.15
1959.00	9366.82
1960.00	9306.75
1961.00	9269.30
1962.00	9302.07
1963.00	9296.61
1964.00	9210.79
1965.00	9209.23
1966.00	9265.40
1967.00	9349.66
1968.00	9288.03
1969.00	9226.39
1970.00	9156.96
1971.00	9181.92
1972.00	9079.72
1973.00	9064.11
1974.00	8978.30
1975.00	9071.14
1976.00	9075.04
1977.00	9070.36
1978.00	9085.96
1979.00	9124.97
1980.00	9232.63
1981.00	9156.96
1982.00	9188.94
1983.00	9150.71
1984.00	9107.80
1985.00	8972.05
1986.00	8845.66
1987.00	8873.75
1988.00	8831.62
1989.00	8768.43
1990.00	8631.12
1991.00	8556.22
1992.00	8479.76
1993.00	8432.17
1994.00	8428.27
1995.00	8436.07
1996.00	8314.36
1997.00	8157.55
1998.00	8038.96
1999.00	8021.02
2000.00	8077.19
2001.00	8082.65
2002.00	8115.42
2003.00	8033.50
2004.00	7996.05
2005.00	7989.03
2006.00	7876.68
2007.00	7814.27
2008.00	7645.75
2009.00	7660.57
2010.00	7608.30
2011.00	7539.65
2012.00	7494.40
2013.00	7546.67
2014.00	7564.61
2015.00	7538.09
2016.00	7447.58
2017.00	7410.92
2018.00	7350.84
2019.00	7276.73
2020.00	7253.32
2021.00	7237.72
2022.00	7251.76
2023.00	7239.28
2024.00	7168.28
2025.00	7109.77
2026.00	7053.59
2027.00	7116.79
2028.00	7012.24
2029.00	7058.28
2030.00	7046.57
2031.00	7210.41
2032.00	7190.13
2033.00	7172.18
2034.00	7130.83
2035.00	7111.33
2036.00	7024.73
2037.00	6906.92
2038.00	6878.83
2039.00	6931.11
2040.00	6979.48
2041.00	6963.09
2042.00	6924.08
2043.00	6822.66
2044.00	6736.84
2045.00	6673.65
2046.00	6644.78
2047.00	6576.91
>>>>>End Processed Spectral Data<<<<<
