SpectraSuite Data File
++++++++++++++++++++++++++++++++++++
Date: Thu Nov 16 13:32:54 EST 2017
User: cheriyan
Dark Spectrum Present: No
Reference Spectrum Present: No
Number of Sampled Component Spectra: 1
Spectrometers: USB2+H05261
Integration Time (usec): 90000 (USB2+H05261)
Spectra Averaged: 1 (USB2+H05261)
Boxcar Smoothing: 1 (USB2+H05261)
Correct for Electrical Dark: No (USB2+H05261)
Strobe/Lamp Enabled: No (USB2+H05261)
Correct for Detector Non-linearity: No (USB2+H05261)
Correct for Stray Light: No (USB2+H05261)
Number of Pixels in Processed Spectrum: 2048
>>>>>Begin Processed Spectral Data<<<<<
0.00	313.63
1.00	313.63
2.00	338.60
3.00	330.80
4.00	316.75
5.00	252.00
6.00	249.66
7.00	248.10
8.00	261.36
9.00	237.95
10.00	234.83
11.00	264.48
12.00	287.11
13.00	301.93
14.00	285.55
15.00	277.74
16.00	269.16
17.00	267.60
18.00	262.92
19.00	272.28
20.00	291.79
21.00	302.71
22.00	322.21
23.00	769.26
24.00	2416.21
25.00	4210.62
26.00	5632.89
27.00	5781.12
28.00	5609.48
29.00	5315.36
30.00	5114.07
31.00	5056.34
32.00	5127.33
33.00	5149.96
34.00	5165.56
35.00	5023.57
36.00	4834.77
37.00	4628.80
38.00	4591.35
39.00	4663.91
40.00	4770.79
41.00	4803.56
42.00	4797.32
43.00	4811.36
44.00	4873.00
45.00	5067.26
46.00	5345.00
47.00	5621.97
48.00	5809.21
49.00	5864.60
50.00	5861.48
51.00	5742.89
52.00	5714.03
53.00	5828.71
54.00	5998.79
55.00	6141.57
56.00	6318.67
57.00	6621.38
58.00	6979.48
59.00	7152.68
60.00	7282.97
61.00	7261.90
62.00	7155.02
63.00	6957.63
64.00	6690.03
65.00	6423.99
66.00	6170.43
67.00	6018.30
68.00	5937.94
69.00	5938.72
70.00	6085.39
71.00	6328.81
72.00	6607.33
73.00	6790.67
74.00	6875.71
75.00	6806.28
76.00	6652.58
77.00	6413.85
78.00	6071.35
79.00	5784.24
80.00	5514.30
81.00	5315.36
82.00	5085.20
83.00	4878.46
84.00	4734.12
85.00	4539.08
86.00	4470.42
87.00	4489.15
88.00	4611.64
89.00	4642.84
90.00	4762.99
91.00	5041.51
92.00	5542.39
93.00	6006.59
94.00	6351.43
95.00	6548.04
96.00	6620.60
97.00	6526.97
98.00	6382.64
99.00	6252.35
100.00	6269.52
101.00	6322.57
102.00	6444.28
103.00	6551.94
104.00	6615.13
105.00	6608.11
106.00	6481.72
107.00	6440.37
108.00	6470.02
109.00	6623.72
110.00	6688.47
111.00	6650.24
112.00	6586.27
113.00	6523.07
114.00	6593.29
115.00	6764.15
116.00	7051.25
117.00	7434.32
118.00	7816.61
119.00	8145.06
120.00	8397.06
121.00	8447.77
122.00	8493.80
123.00	8439.19
124.00	8505.51
125.00	8646.72
126.00	8883.89
127.00	9180.36
128.00	9386.33
129.00	9455.76
130.00	9268.52
131.00	8972.05
132.00	8611.61
133.00	8237.91
134.00	7724.55
135.00	6998.98
136.00	6223.48
137.00	5444.87
138.00	4904.20
139.00	4694.33
140.00	4891.72
141.00	5433.94
142.00	6116.60
143.00	6839.83
144.00	7581.78
145.00	8351.03
146.00	9026.67
147.00	9458.10
148.00	9731.95
149.00	9958.20
150.00	10012.81
151.00	9792.80
152.00	9252.92
153.00	8539.05
154.00	7595.04
155.00	6654.14
156.00	5936.38
157.00	5784.24
158.00	6114.26
159.00	6865.57
160.00	7896.97
161.00	9163.20
162.00	10267.93
163.00	11092.58
164.00	11604.38
165.00	12035.81
166.00	12482.08
167.00	12765.28
168.00	13078.91
169.00	13259.91
170.00	13506.45
171.00	13610.22
172.00	13667.95
173.00	13730.36
174.00	13892.64
175.00	14031.51
176.00	14164.92
177.00	14222.66
178.00	14391.95
179.00	14640.05
180.00	14945.10
181.00	15151.85
182.00	15333.63
183.00	15464.70
184.00	15520.09
185.00	15482.64
186.00	15351.57
187.00	15355.47
188.00	15172.13
189.00	14972.41
190.00	14821.83
191.00	14934.96
192.00	15208.80
193.00	15471.72
194.00	15485.76
195.00	15353.91
196.00	15074.61
197.00	14947.44
198.00	14950.56
199.00	15157.31
200.00	15305.54
201.00	15409.31
202.00	15364.84
203.00	15264.97
204.00	15126.10
205.00	15021.56
206.00	14857.72
207.00	14851.48
208.00	14915.45
209.00	15169.01
210.00	15303.20
211.00	15272.00
212.00	15242.35
213.00	15386.68
214.00	15665.21
215.00	16027.21
216.00	16225.37
217.00	16553.83
218.00	16756.68
219.00	17111.66
220.00	17177.97
221.00	17178.75
222.00	16901.01
223.00	16329.92
224.00	15745.56
225.00	15215.04
226.00	15104.26
227.00	15214.26
228.00	15534.14
229.00	15981.18
230.00	16649.01
231.00	17220.10
232.00	17713.95
233.00	18026.03
234.00	18215.61
235.00	18390.37
236.00	18402.85
237.00	18556.55
238.00	18513.64
239.00	18395.05
240.00	18067.38
241.00	17849.71
242.00	17874.67
243.00	18125.11
244.00	18504.28
245.00	18731.31
246.00	18885.78
247.00	18963.80
248.00	18864.72
249.00	18805.42
250.00	18760.17
251.00	18856.92
252.00	18948.98
253.00	18881.88
254.00	19002.03
255.00	19261.83
256.00	19779.09
257.00	20173.86
258.00	20467.20
259.00	20489.05
260.00	20402.45
261.00	20109.10
262.00	19723.69
263.00	19343.75
264.00	19131.54
265.00	19161.19
266.00	19293.04
267.00	19452.97
268.00	19550.49
269.00	19597.31
270.00	19708.09
271.00	19949.95
272.00	20273.72
273.00	20442.24
274.00	20360.32
275.00	20162.15
276.00	19866.47
277.00	19590.28
278.00	19367.15
279.00	19454.53
280.00	20004.56
281.00	20649.77
282.00	21218.52
283.00	21394.84
284.00	21500.94
285.00	21434.63
286.00	21577.40
287.00	21344.91
288.00	21050.78
289.00	20488.27
290.00	20013.14
291.00	19548.93
292.00	19317.22
293.00	19468.58
294.00	19820.44
295.00	20081.80
296.00	20282.30
297.00	20336.13
298.00	20494.51
299.00	20400.89
300.00	20502.31
301.00	20204.28
302.00	20190.24
303.00	19992.86
304.00	20084.14
305.00	20121.59
306.00	20054.49
307.00	19963.99
308.00	19845.40
309.00	19886.75
310.00	20012.36
311.00	20230.81
312.00	20340.04
313.00	20141.87
314.00	19572.34
315.00	18991.89
316.00	18665.77
317.00	18721.16
318.00	19097.21
319.00	19430.35
320.00	19874.27
321.00	19870.37
322.00	19783.77
323.00	19389.78
324.00	19195.51
325.00	19012.95
326.00	18868.62
327.00	18654.07
328.00	18178.16
329.00	17458.06
330.00	16718.45
331.00	15896.14
332.00	15259.51
333.00	14679.84
334.00	14595.58
335.00	14850.70
336.00	15438.17
337.00	16533.54
338.00	18202.35
339.00	20016.26
340.00	21427.60
341.00	22031.46
342.00	21753.72
343.00	21266.89
344.00	20713.74
345.00	20792.54
346.00	21265.33
347.00	21889.47
348.00	22295.16
349.00	22062.67
350.00	21329.30
351.00	20346.28
352.00	19687.81
353.00	19674.54
354.00	20217.55
355.00	20885.38
356.00	21481.44
357.00	21978.41
358.00	22184.38
359.00	22439.50
360.00	22559.64
361.00	22955.97
362.00	23249.32
363.00	23697.14
364.00	24003.75
365.00	24191.00
366.00	24105.96
367.00	23929.64
368.00	23540.33
369.00	23055.06
370.00	22828.81
371.00	22681.35
372.00	22613.48
373.00	22073.59
374.00	21543.85
375.00	21028.93
376.00	20861.98
377.00	20867.44
378.00	21389.38
379.00	22015.08
380.00	22831.15
381.00	23352.30
382.00	23821.19
383.00	24027.16
384.00	23850.06
385.00	23528.63
386.00	23314.86
387.00	23509.90
388.00	23908.57
389.00	24510.87
390.00	25117.85
391.00	25600.78
392.00	25920.65
393.00	26272.51
394.00	26639.98
395.00	27032.41
396.00	27171.28
397.00	27463.85
398.00	27472.43
399.00	27718.96
400.00	27495.83
401.00	27495.83
402.00	27360.86
403.00	27598.04
404.00	27950.68
405.00	27989.69
406.00	28046.64
407.00	27785.28
408.00	27760.31
409.00	27671.37
410.00	27923.37
411.00	28028.70
412.00	27642.51
413.00	26804.60
414.00	26114.92
415.00	25756.04
416.00	25734.19
417.00	25896.47
418.00	26361.45
419.00	26781.19
420.00	27148.65
421.00	27506.76
422.00	27861.74
423.00	28329.06
424.00	28505.38
425.00	28843.20
426.00	28674.68
427.00	28414.88
428.00	28161.33
429.00	28285.37
430.00	28471.06
431.00	28489.78
432.00	28208.14
433.00	28244.02
434.00	28337.65
435.00	28658.30
436.00	28820.58
437.00	29016.40
438.00	29286.34
439.00	29684.23
440.00	30250.64
441.00	30762.44
442.00	31005.86
443.00	30777.26
444.00	30462.85
445.00	30158.58
446.00	30038.44
447.00	29903.46
448.00	29879.28
449.00	29575.79
450.00	29315.99
451.00	28971.15
452.00	28673.12
453.00	28190.97
454.00	27669.03
455.00	27465.41
456.00	27626.90
457.00	28104.37
458.00	28648.94
459.00	29138.11
460.00	29478.27
461.00	29581.25
462.00	29565.65
463.00	29419.75
464.00	29248.11
465.00	29087.40
466.00	29032.79
467.00	29365.14
468.00	29653.81
469.00	30145.32
470.00	30443.35
471.00	30911.46
472.00	30973.87
473.00	30953.58
474.00	30977.77
475.00	30940.32
476.00	31193.10
477.00	31436.52
478.00	31741.57
479.00	31743.13
480.00	31251.61
481.00	30945.00
482.00	30489.38
483.00	30274.83
484.00	30383.27
485.00	30529.17
486.00	30771.02
487.00	30687.54
488.00	30693.01
489.00	30668.04
490.00	30608.75
491.00	30673.50
492.00	30804.57
493.00	30869.33
494.00	30869.33
495.00	30838.12
496.00	31226.65
497.00	31661.21
498.00	31945.19
499.00	32009.17
500.00	31859.37
501.00	31985.76
502.00	32134.00
503.00	32221.38
504.00	32355.57
505.00	32339.96
506.00	32520.18
507.00	32777.64
508.00	32773.74
509.00	32924.32
510.00	32630.97
511.00	32464.79
512.00	32262.72
513.00	32260.38
514.00	32344.64
515.00	32215.13
516.00	31835.97
517.00	31491.13
518.00	31225.09
519.00	30983.23
520.00	31291.40
521.00	31319.49
522.00	31505.17
523.00	31715.04
524.00	32002.14
525.00	32454.65
526.00	32063.78
527.00	31655.75
528.00	31055.79
529.00	30693.79
530.00	30625.13
531.00	30684.42
532.00	30873.23
533.00	31223.53
534.00	31371.76
535.00	31592.55
536.00	31375.66
537.00	31181.40
538.00	31232.89
539.00	31396.73
540.00	31763.41
541.00	31611.28
542.00	31743.13
543.00	31943.63
544.00	32134.78
545.00	32028.67
546.00	31516.87
547.00	31293.74
548.00	30987.91
549.00	30992.59
550.00	30930.96
551.00	31069.83
552.00	31175.94
553.00	31246.93
554.00	31470.84
555.00	32011.51
556.00	32499.90
557.00	33132.62
558.00	33560.94
559.00	33983.80
560.00	34135.93
561.00	33897.98
562.00	33493.07
563.00	33121.70
564.00	32886.09
565.00	32941.48
566.00	33127.16
567.00	33180.21
568.00	33371.36
569.00	33301.14
570.00	33750.52
571.00	34196.79
572.00	34526.02
573.00	34742.91
574.00	34684.40
575.00	34802.99
576.00	34852.14
577.00	34781.92
578.00	34864.62
579.00	34602.48
580.00	34587.66
581.00	34366.87
582.00	34434.74
583.00	34313.03
584.00	34569.71
585.00	35057.32
586.00	35814.88
587.00	35984.18
588.00	36119.15
589.00	36491.29
590.00	37130.26
591.00	37594.46
592.00	37728.66
593.00	37724.75
594.00	37763.76
595.00	37714.61
596.00	37667.80
597.00	37850.36
598.00	38337.98
599.00	39177.45
600.00	39665.84
601.00	39721.23
602.00	39693.93
603.00	39591.72
604.00	39901.45
605.00	40247.07
606.00	40517.79
607.00	40627.02
608.00	40773.69
609.00	40981.22
610.00	41211.37
611.00	41234.78
612.00	41642.81
613.00	42111.70
614.00	42417.53
615.00	42369.94
616.00	42287.24
617.00	42344.97
618.00	42530.65
619.00	42589.17
620.00	42806.06
621.00	43004.22
622.00	43254.66
623.00	43408.36
624.00	43313.95
625.00	43078.34
626.00	43071.32
627.00	43274.16
628.00	43682.98
629.00	43985.69
630.00	44267.33
631.00	44102.71
632.00	43383.39
633.00	42513.49
634.00	41142.72
635.00	39418.52
636.00	37746.60
637.00	36883.72
638.00	37357.29
639.00	38266.98
640.00	39671.30
641.00	40713.62
642.00	41759.06
643.00	42647.68
644.00	43498.08
645.00	44258.75
646.00	45060.77
647.00	45828.47
648.00	46412.82
649.00	46705.39
650.00	46638.29
651.00	46370.69
652.00	45901.81
653.00	45878.40
654.00	46285.65
655.00	47334.21
656.00	48375.75
657.00	49265.94
658.00	49761.35
659.00	50173.28
660.00	50381.59
661.00	50257.54
662.00	50179.53
663.00	49997.74
664.00	50037.53
665.00	49775.39
666.00	49853.41
667.00	49566.30
668.00	49200.40
669.00	48523.21
670.00	48099.57
671.00	48133.90
672.00	48708.89
673.00	49608.43
674.00	50578.98
675.00	51267.87
676.00	51585.41
677.00	51446.54
678.00	51032.26
679.00	50790.41
680.00	50650.75
681.00	51007.29
682.00	51640.80
683.00	52349.98
684.00	52916.39
685.00	53243.29
686.00	53525.71
687.00	53596.71
688.00	53411.81
689.00	53076.33
690.00	52705.74
691.00	52477.93
692.00	52560.63
693.00	52821.99
694.00	53391.52
695.00	53709.83
696.00	53909.56
697.00	53773.03
698.00	53860.41
699.00	54124.11
700.00	54387.81
701.00	54537.60
702.00	54259.86
703.00	53875.23
704.00	53341.59
705.00	52866.46
706.00	52648.01
707.00	52717.45
708.00	53238.61
709.00	53844.02
710.00	54320.71
711.00	54614.06
712.00	54627.32
713.00	54654.63
714.00	54518.10
715.00	54380.79
716.00	53865.87
717.00	53494.50
718.00	53032.64
719.00	53042.78
720.00	52988.95
721.00	52993.63
722.00	52866.46
723.00	52766.60
724.00	52807.17
725.00	52711.99
726.00	52817.31
727.00	53089.59
728.00	53419.61
729.00	53692.67
730.00	53851.05
731.00	54151.41
732.00	54400.29
733.00	54447.10
734.00	54357.38
735.00	54016.44
736.00	53614.65
737.00	53218.32
738.00	52981.93
739.00	53091.15
740.00	53382.16
741.00	53819.06
742.00	54085.88
743.00	54217.73
744.00	54415.90
745.00	54820.03
746.00	55227.28
747.00	55582.26
748.00	55806.95
749.00	56022.28
750.00	55959.87
751.00	55767.16
752.00	55599.43
753.00	55323.24
754.00	55201.53
755.00	55012.73
756.00	55083.73
757.00	54928.47
758.00	54694.42
759.00	54381.57
760.00	54146.73
761.00	54003.18
762.00	54106.94
763.00	54597.68
764.00	55087.63
765.00	55551.84
766.00	55804.61
767.00	56133.07
768.00	56250.88
769.00	56112.00
770.00	55842.06
771.00	55526.87
772.00	55451.19
773.00	55417.64
774.00	55489.42
775.00	55390.34
776.00	55341.97
777.00	55462.11
778.00	55718.01
779.00	56028.52
780.00	56148.67
781.00	56395.21
782.00	56503.65
783.00	56602.74
784.00	56399.11
785.00	55994.98
786.00	55720.35
787.00	55463.67
788.00	55485.52
789.00	55462.11
790.00	55359.13
791.00	55512.83
792.00	55463.67
793.00	55415.30
794.00	55132.88
795.00	54816.13
796.00	54752.93
797.00	54664.77
798.00	54926.91
799.00	55106.35
800.00	55337.29
801.00	55405.94
802.00	55543.25
803.00	55629.07
804.00	55753.90
805.00	55908.38
806.00	55989.52
807.00	55690.71
808.00	55011.95
809.00	53834.66
810.00	52522.40
811.00	51159.43
812.00	50029.73
813.00	49514.81
814.00	49993.84
815.00	51215.60
816.00	52662.05
817.00	53521.81
818.00	53670.82
819.00	53112.22
820.00	52355.44
821.00	52058.98
822.00	52335.16
823.00	52929.65
824.00	53489.82
825.00	53930.62
826.00	54247.38
827.00	54647.61
828.00	55051.74
829.00	55463.67
830.00	55663.40
831.00	55713.33
832.00	55591.62
833.00	55317.00
834.00	55139.12
835.00	55131.32
836.00	55457.43
837.00	55788.23
838.00	56036.33
839.00	56130.73
840.00	56265.70
841.00	56350.74
842.00	56339.82
843.00	56072.21
844.00	55621.27
845.00	55267.07
846.00	55008.05
847.00	55054.08
848.00	55121.18
849.00	55370.05
850.00	55677.44
851.00	56123.71
852.00	56488.83
853.00	56789.20
854.00	57006.09
855.00	57118.43
856.00	57067.72
857.00	56844.59
858.00	56696.36
859.00	56551.24
860.00	56583.23
861.00	56539.54
862.00	56650.33
863.00	56647.99
864.00	56561.39
865.00	55982.49
866.00	55132.10
867.00	54103.04
868.00	53255.77
869.00	52745.53
870.00	52459.21
871.00	52653.47
872.00	53006.89
873.00	53708.27
874.00	54489.23
875.00	55058.76
876.00	55528.43
877.00	55682.12
878.00	55840.50
879.00	56016.04
880.00	56259.46
881.00	56647.21
882.00	56865.66
883.00	57012.33
884.00	56839.91
885.00	56466.20
886.00	56009.02
887.00	55671.98
888.00	55528.43
889.00	55600.21
890.00	55902.92
891.00	56314.07
892.00	56718.98
893.00	56881.26
894.00	56908.57
895.00	56795.44
896.00	56704.16
897.00	56502.09
898.00	56375.70
899.00	56214.99
900.00	56017.60
901.00	55648.58
902.00	55079.05
903.00	54537.60
904.00	54083.54
905.00	54119.43
906.00	54307.45
907.00	54783.36
908.00	55128.98
909.00	55638.43
910.00	55787.45
911.00	55707.09
912.00	55320.90
913.00	55118.84
914.00	54969.82
915.00	55143.80
916.00	55241.32
917.00	55605.67
918.00	55795.25
919.00	56065.97
920.00	56285.20
921.00	56510.67
922.00	56627.70
923.00	56505.99
924.00	56211.09
925.00	55861.57
926.00	55519.85
927.00	55088.41
928.00	54648.39
929.00	54358.16
930.00	54296.53
931.00	54507.96
932.00	54793.50
933.00	55214.80
934.00	55420.77
935.00	55458.21
936.00	55420.77
937.00	55444.95
938.00	55423.89
939.00	55300.62
940.00	55189.83
941.00	55001.81
942.00	54866.84
943.00	54563.35
944.00	54305.11
945.00	54105.38
946.00	54004.74
947.00	53860.41
948.00	53695.79
949.00	53360.31
950.00	53280.74
951.00	52970.22
952.00	52949.94
953.00	52907.81
954.00	53253.43
955.00	53581.10
956.00	53885.37
957.00	54108.50
958.00	54268.44
959.00	54428.38
960.00	54291.85
961.00	54145.17
962.00	54054.67
963.00	54081.98
964.00	54187.30
965.00	54044.53
966.00	54100.70
967.00	54098.36
968.00	54138.15
969.00	54193.54
970.00	54536.82
971.00	54972.94
972.00	55075.93
973.00	54884.78
974.00	54639.03
975.00	54635.91
976.00	54404.19
977.00	54347.24
978.00	54157.66
979.00	54220.85
980.00	54144.39
981.00	54371.42
982.00	54372.99
983.00	54339.44
984.00	54217.73
985.00	54159.22
986.00	54131.91
987.00	54031.27
988.00	54099.14
989.00	54018.78
990.00	53961.83
991.00	53575.64
992.00	53346.27
993.00	53051.36
994.00	53148.88
995.00	53266.69
996.00	53562.38
997.00	53781.61
998.00	54008.64
999.00	54041.41
1000.00	54098.36
1001.00	54083.54
1002.00	54081.20
1003.00	53971.19
1004.00	54009.42
1005.00	53961.05
1006.00	53988.36
1007.00	53812.82
1008.00	53822.18
1009.00	53583.44
1010.00	53492.94
1011.00	53167.61
1012.00	53225.34
1013.00	53233.14
1014.00	53415.71
1015.00	53407.12
1016.00	53493.72
1017.00	53662.24
1018.00	53904.10
1019.00	54065.59
1020.00	53817.50
1021.00	53560.04
1022.00	53148.88
1023.00	52884.40
1024.00	52726.03
1025.00	52896.11
1026.00	53307.26
1027.00	53351.73
1028.00	53264.35
1029.00	53029.52
1030.00	53195.70
1031.00	53511.67
1032.00	53787.85
1033.00	53984.46
1034.00	53833.88
1035.00	53797.99
1036.00	53710.61
1037.00	53741.82
1038.00	53677.85
1039.00	53510.11
1040.00	53424.29
1041.00	53297.12
1042.00	53095.05
1043.00	52888.31
1044.00	52720.57
1045.00	52587.94
1046.00	52533.32
1047.00	52222.81
1048.00	52083.94
1049.00	51781.23
1050.00	51920.10
1051.00	52083.94
1052.00	52365.59
1053.00	52476.37
1054.00	52472.47
1055.00	52405.37
1056.00	52235.30
1057.00	51963.01
1058.00	51388.02
1059.00	50932.40
1060.00	50683.52
1061.00	50612.52
1062.00	50660.90
1063.00	50645.29
1064.00	50781.04
1065.00	50820.83
1066.00	50814.59
1067.00	50896.51
1068.00	51081.41
1069.00	51426.25
1070.00	51703.21
1071.00	51957.55
1072.00	52284.45
1073.00	52276.65
1074.00	52235.30
1075.00	51682.93
1076.00	51349.01
1077.00	51031.48
1078.00	50981.55
1079.00	50985.45
1080.00	50910.55
1081.00	50898.07
1082.00	51068.15
1083.00	51206.24
1084.00	51513.63
1085.00	51564.34
1086.00	51757.05
1087.00	51609.59
1088.00	51402.07
1089.00	51073.61
1090.00	50834.88
1091.00	50720.19
1092.00	50692.10
1093.00	50754.52
1094.00	50914.45
1095.00	50912.89
1096.00	50891.83
1097.00	50757.64
1098.00	50685.86
1099.00	50474.43
1100.00	50363.65
1101.00	50004.77
1102.00	49702.84
1103.00	49350.20
1104.00	49293.24
1105.00	49283.88
1106.00	49361.90
1107.00	49458.64
1108.00	49711.42
1109.00	49882.28
1110.00	50302.79
1111.00	50354.29
1112.00	50497.84
1113.00	50258.32
1114.00	50196.69
1115.00	49851.07
1116.00	49452.40
1117.00	48997.55
1118.00	48687.82
1119.00	48414.76
1120.00	48307.88
1121.00	48300.08
1122.00	48493.56
1123.00	48506.82
1124.00	48651.94
1125.00	48595.76
1126.00	48852.44
1127.00	48694.85
1128.00	48563.00
1129.00	48136.24
1130.00	47817.92
1131.00	47398.97
1132.00	46854.40
1133.00	46290.34
1134.00	45942.38
1135.00	45924.43
1136.00	46341.05
1137.00	46689.79
1138.00	47136.05
1139.00	47398.19
1140.00	47778.14
1141.00	47953.68
1142.00	48117.51
1143.00	48122.19
1144.00	48204.89
1145.00	48171.35
1146.00	48251.70
1147.00	48016.09
1148.00	47921.69
1149.00	47828.07
1150.00	47801.54
1151.00	47781.26
1152.00	47691.54
1153.00	47720.40
1154.00	47459.04
1155.00	47165.70
1156.00	46862.99
1157.00	46706.17
1158.00	46498.64
1159.00	46312.96
1160.00	45954.86
1161.00	45884.64
1162.00	45756.69
1163.00	45755.91
1164.00	45680.24
1165.00	45784.78
1166.00	45764.49
1167.00	45803.50
1168.00	45973.58
1169.00	46244.30
1170.00	46315.30
1171.00	46122.60
1172.00	45931.45
1173.00	45749.67
1174.00	45589.73
1175.00	45532.00
1176.00	45231.63
1177.00	44857.15
1178.00	44371.10
1179.00	44234.56
1180.00	44299.32
1181.00	44367.98
1182.00	44479.54
1183.00	44595.01
1184.00	44910.20
1185.00	45023.33
1186.00	45180.14
1187.00	45276.88
1188.00	45455.54
1189.00	45361.92
1190.00	45432.92
1191.00	45418.88
1192.00	45424.34
1193.00	45308.87
1194.00	45216.03
1195.00	45373.63
1196.00	45356.46
1197.00	45278.44
1198.00	45280.00
1199.00	45432.92
1200.00	45556.19
1201.00	45591.30
1202.00	45567.11
1203.00	45825.35
1204.00	45790.24
1205.00	45901.81
1206.00	45829.25
1207.00	46096.07
1208.00	46081.25
1209.00	46071.10
1210.00	45855.00
1211.00	45709.88
1212.00	45681.02
1213.00	45608.46
1214.00	45513.28
1215.00	45437.60
1216.00	45328.38
1217.00	45327.59
1218.00	45369.72
1219.00	45358.80
1220.00	45159.86
1221.00	44591.11
1222.00	44362.51
1223.00	44048.88
1224.00	43878.02
1225.00	43556.59
1226.00	43448.92
1227.00	43521.48
1228.00	43509.78
1229.00	43427.08
1230.00	43413.82
1231.00	43477.01
1232.00	43670.50
1233.00	43807.03
1234.00	43912.35
1235.00	43833.55
1236.00	43893.63
1237.00	43696.24
1238.00	43647.09
1239.00	43284.31
1240.00	42990.96
1241.00	42476.04
1242.00	41706.01
1243.00	40716.74
1244.00	39563.64
1245.00	38477.63
1246.00	37685.75
1247.00	37207.50
1248.00	36987.49
1249.00	37105.29
1250.00	37395.52
1251.00	38048.53
1252.00	38833.39
1253.00	39803.15
1254.00	40512.33
1255.00	41092.01
1256.00	41367.41
1257.00	41766.86
1258.00	41875.30
1259.00	41748.14
1260.00	41327.62
1261.00	41084.20
1262.00	40992.14
1263.00	41141.94
1264.00	41099.81
1265.00	41174.70
1266.00	41106.83
1267.00	41200.45
1268.00	41282.37
1269.00	41296.41
1270.00	41202.01
1271.00	41041.29
1272.00	41044.41
1273.00	41026.47
1274.00	41194.99
1275.00	41191.09
1276.00	41156.76
1277.00	40791.64
1278.00	40513.89
1279.00	40318.07
1280.00	40002.10
1281.00	39783.65
1282.00	39448.17
1283.00	39626.05
1284.00	39527.75
1285.00	39888.19
1286.00	40062.17
1287.00	40424.17
1288.00	40517.79
1289.00	40789.30
1290.00	40849.37
1291.00	40786.18
1292.00	40569.29
1293.00	40479.57
1294.00	40457.72
1295.00	40463.96
1296.00	40509.99
1297.00	40437.44
1298.00	40431.97
1299.00	40282.96
1300.00	40140.97
1301.00	39876.49
1302.00	39707.19
1303.00	39535.55
1304.00	39604.20
1305.00	39654.14
1306.00	39811.73
1307.00	39593.28
1308.00	39600.30
1309.00	39655.70
1310.00	39884.29
1311.00	39873.37
1312.00	40048.13
1313.00	40076.99
1314.00	40066.07
1315.00	39801.59
1316.00	39727.47
1317.00	39672.86
1318.00	39558.17
1319.00	39286.67
1320.00	39084.61
1321.00	39129.86
1322.00	39257.03
1323.00	39184.47
1324.00	39054.18
1325.00	38898.92
1326.00	38969.14
1327.00	38783.46
1328.00	38577.49
1329.00	38388.69
1330.00	38462.02
1331.00	38571.25
1332.00	38605.58
1333.00	38608.70
1334.00	38722.60
1335.00	38880.20
1336.00	39161.06
1337.00	39280.43
1338.00	39381.85
1339.00	39365.47
1340.00	39327.24
1341.00	39427.88
1342.00	39369.37
1343.00	39333.48
1344.00	39179.01
1345.00	39008.15
1346.00	38918.43
1347.00	38941.05
1348.00	38941.05
1349.00	38821.69
1350.00	38540.82
1351.00	38491.67
1352.00	38388.69
1353.00	38482.31
1354.00	38469.83
1355.00	38399.61
1356.00	38326.27
1357.00	38121.09
1358.00	38170.24
1359.00	38186.62
1360.00	38394.15
1361.00	38493.23
1362.00	38479.19
1363.00	38410.53
1364.00	38179.60
1365.00	38043.07
1366.00	37850.36
1367.00	37631.91
1368.00	37445.45
1369.00	37360.41
1370.00	37524.25
1371.00	37543.75
1372.00	37450.91
1373.00	37187.99
1374.00	36997.63
1375.00	36828.33
1376.00	36888.40
1377.00	37022.59
1378.00	37110.75
1379.00	36849.39
1380.00	36627.04
1381.00	36276.74
1382.00	36195.60
1383.00	36104.32
1384.00	36050.49
1385.00	36183.90
1386.00	36212.77
1387.00	36446.82
1388.00	36498.31
1389.00	36614.56
1390.00	36532.64
1391.00	36452.28
1392.00	36178.44
1393.00	36030.21
1394.00	35799.27
1395.00	35652.60
1396.00	35632.32
1397.00	35750.90
1398.00	35948.29
1399.00	36010.70
1400.00	36057.51
1401.00	35653.38
1402.00	35373.30
1403.00	34877.10
1404.00	34788.16
1405.00	34742.91
1406.00	34685.96
1407.00	34877.88
1408.00	34805.33
1409.00	35108.82
1410.00	35154.85
1411.00	35273.43
1412.00	35225.06
1413.00	34965.26
1414.00	34842.78
1415.00	34536.94
1416.00	34409.00
1417.00	34119.55
1418.00	33795.00
1419.00	33431.43
1420.00	33144.33
1421.00	33083.47
1422.00	33215.32
1423.00	33238.73
1424.00	33280.86
1425.00	33251.99
1426.00	33364.34
1427.00	33597.61
1428.00	33690.45
1429.00	33851.17
1430.00	33921.38
1431.00	34181.18
1432.00	34280.27
1433.00	34242.82
1434.00	34273.24
1435.00	34185.08
1436.00	34124.23
1437.00	33781.73
1438.00	33582.79
1439.00	33387.74
1440.00	33485.26
1441.00	33552.36
1442.00	33737.26
1443.00	33633.50
1444.00	33787.19
1445.00	33699.81
1446.00	33822.30
1447.00	33734.14
1448.00	33873.79
1449.00	33870.67
1450.00	33989.26
1451.00	33944.79
1452.00	33755.21
1453.00	33393.98
1454.00	32982.05
1455.00	32765.16
1456.00	32627.07
1457.00	32508.48
1458.00	32520.18
1459.00	32564.65
1460.00	32693.38
1461.00	32637.21
1462.00	32524.86
1463.00	32222.94
1464.00	32049.74
1465.00	31824.26
1466.00	31804.76
1467.00	31667.45
1468.00	31566.81
1469.00	31512.19
1470.00	31598.79
1471.00	31603.47
1472.00	31527.80
1473.00	31333.53
1474.00	31115.08
1475.00	31007.42
1476.00	30858.40
1477.00	30930.18
1478.00	30850.60
1479.00	30686.76
1480.00	30359.87
1481.00	30204.61
1482.00	30190.57
1483.00	30219.44
1484.00	30231.92
1485.00	30306.04
1486.00	30318.52
1487.00	30458.95
1488.00	30436.33
1489.00	30614.99
1490.00	30504.20
1491.00	30442.57
1492.00	30194.47
1493.00	29960.42
1494.00	29538.34
1495.00	29027.32
1496.00	28506.94
1497.00	27955.36
1498.00	27807.90
1499.00	27767.34
1500.00	28197.99
1501.00	28385.24
1502.00	28706.67
1503.00	28840.86
1504.00	28937.60
1505.00	28918.88
1506.00	28712.13
1507.00	28587.30
1508.00	28340.77
1509.00	28412.54
1510.00	28268.21
1511.00	28102.03
1512.00	27906.99
1513.00	27937.41
1514.00	28161.33
1515.00	28335.31
1516.00	28304.10
1517.00	28362.61
1518.00	28364.17
1519.00	28353.25
1520.00	28247.93
1521.00	27913.23
1522.00	27708.04
1523.00	27555.13
1524.00	27628.46
1525.00	27851.59
1526.00	27981.10
1527.00	28251.83
1528.00	28418.78
1529.00	28584.96
1530.00	28563.90
1531.00	28570.92
1532.00	28567.02
1533.00	28475.74
1534.00	28208.14
1535.00	27985.01
1536.00	27892.16
1537.00	28002.95
1538.00	27992.03
1539.00	27942.88
1540.00	27871.88
1541.00	27872.66
1542.00	28063.02
1543.00	28174.59
1544.00	28261.97
1545.00	28171.47
1546.00	28211.26
1547.00	28144.94
1548.00	28136.36
1549.00	27954.58
1550.00	27725.99
1551.00	27438.88
1552.00	27336.68
1553.00	27412.35
1554.00	27392.07
1555.00	27402.99
1556.00	27587.11
1557.00	27794.64
1558.00	28000.61
1559.00	28052.10
1560.00	28071.61
1561.00	28056.78
1562.00	28063.02
1563.00	28104.37
1564.00	27927.27
1565.00	27722.09
1566.00	27711.16
1567.00	27785.28
1568.00	27829.75
1569.00	27731.45
1570.00	27569.95
1571.00	27413.91
1572.00	27153.34
1573.00	27143.97
1574.00	27115.89
1575.00	27072.98
1576.00	26977.79
1577.00	26745.30
1578.00	26676.65
1579.00	26523.73
1580.00	26616.57
1581.00	26595.51
1582.00	26603.31
1583.00	26410.60
1584.00	26336.49
1585.00	26249.11
1586.00	26229.60
1587.00	26175.77
1588.00	26105.56
1589.00	25945.62
1590.00	25974.49
1591.00	25905.05
1592.00	26023.64
1593.00	26059.52
1594.00	26249.89
1595.00	26241.31
1596.00	26292.80
1597.00	26270.17
1598.00	26176.55
1599.00	26150.03
1600.00	26063.43
1601.00	26057.96
1602.00	25915.19
1603.00	25713.13
1604.00	25744.33
1605.00	25660.07
1606.00	25797.38
1607.00	25855.90
1608.00	25915.97
1609.00	25842.64
1610.00	25685.04
1611.00	25574.25
1612.00	25365.95
1613.00	25366.73
1614.00	25294.95
1615.00	25378.43
1616.00	25269.20
1617.00	25295.73
1618.00	25229.41
1619.00	25071.04
1620.00	24898.62
1621.00	24768.33
1622.00	24762.87
1623.00	24618.53
1624.00	24637.26
1625.00	24572.50
1626.00	24548.32
1627.00	24372.78
1628.00	24201.92
1629.00	24159.01
1630.00	23999.07
1631.00	23974.89
1632.00	23828.99
1633.00	23894.53
1634.00	23947.58
1635.00	24067.73
1636.00	24002.19
1637.00	23937.44
1638.00	23763.46
1639.00	23731.47
1640.00	23454.51
1641.00	23170.52
1642.00	22936.47
1643.00	22816.32
1644.00	22745.33
1645.00	22839.73
1646.00	23096.41
1647.00	23502.88
1648.00	23826.65
1649.00	24090.35
1650.00	24307.24
1651.00	24271.36
1652.00	24334.55
1653.00	24249.51
1654.00	24194.12
1655.00	23858.64
1656.00	23453.73
1657.00	23128.39
1658.00	23026.97
1659.00	23065.20
1660.00	23196.27
1661.00	23263.36
1662.00	23344.50
1663.00	23462.31
1664.00	23647.21
1665.00	23598.06
1666.00	23577.00
1667.00	23407.70
1668.00	23577.00
1669.00	23515.36
1670.00	23510.68
1671.00	23451.39
1672.00	23374.15
1673.00	23390.53
1674.00	23318.76
1675.00	23173.64
1676.00	23031.65
1677.00	22807.74
1678.00	22721.14
1679.00	22462.90
1680.00	22451.20
1681.00	22216.36
1682.00	22217.93
1683.00	21837.98
1684.00	21559.45
1685.00	21010.21
1686.00	20363.44
1687.00	19650.36
1688.00	18782.02
1689.00	18177.38
1690.00	17841.90
1691.00	18064.25
1692.00	18505.84
1693.00	19076.15
1694.00	19609.79
1695.00	20148.11
1696.00	20650.55
1697.00	20983.68
1698.00	21333.20
1699.00	21531.37
1700.00	21810.67
1701.00	21859.82
1702.00	21951.10
1703.00	22043.95
1704.00	22132.89
1705.00	22199.20
1706.00	22161.75
1707.00	22057.99
1708.00	21986.99
1709.00	21859.04
1710.00	21843.44
1711.00	21813.79
1712.00	21767.76
1713.00	21792.73
1714.00	21729.53
1715.00	21847.34
1716.00	21879.33
1717.00	21955.79
1718.00	21910.54
1719.00	21794.29
1720.00	21749.82
1721.00	21671.02
1722.00	21713.93
1723.00	21680.38
1724.00	21730.31
1725.00	21699.89
1726.00	21664.00
1727.00	21590.66
1728.00	21641.37
1729.00	21669.46
1730.00	21719.39
1731.00	21660.88
1732.00	21660.10
1733.00	21540.73
1734.00	21550.09
1735.00	21468.95
1736.00	21401.86
1737.00	21194.33
1738.00	20992.26
1739.00	20847.93
1740.00	20748.85
1741.00	20751.19
1742.00	20773.81
1743.00	20713.74
1744.00	20655.23
1745.00	20533.52
1746.00	20588.91
1747.00	20587.35
1748.00	20623.24
1749.00	20622.46
1750.00	20641.18
1751.00	20716.08
1752.00	20708.28
1753.00	20563.17
1754.00	20476.57
1755.00	20489.05
1756.00	20426.64
1757.00	20320.53
1758.00	20119.24
1759.00	20140.31
1760.00	19959.31
1761.00	19862.57
1762.00	19736.18
1763.00	19733.06
1764.00	19830.58
1765.00	19822.78
1766.00	19891.43
1767.00	19824.34
1768.00	19751.00
1769.00	19581.70
1770.00	19489.64
1771.00	19582.48
1772.00	19660.50
1773.00	19687.03
1774.00	19647.24
1775.00	19641.78
1776.00	19623.83
1777.00	19593.40
1778.00	19651.14
1779.00	19588.72
1780.00	19513.05
1781.00	19218.92
1782.00	19127.64
1783.00	18973.16
1784.00	19075.37
1785.00	18959.12
1786.00	18935.71
1787.00	18779.68
1788.00	18779.68
1789.00	18848.33
1790.00	18781.24
1791.00	18793.72
1792.00	18689.18
1793.00	18725.85
1794.00	18565.13
1795.00	18466.05
1796.00	18304.55
1797.00	18195.32
1798.00	18079.08
1799.00	18032.27
1800.00	17993.26
1801.00	17931.62
1802.00	17877.01
1803.00	17905.88
1804.00	17950.35
1805.00	18005.74
1806.00	17990.14
1807.00	17971.41
1808.00	17916.02
1809.00	17845.80
1810.00	17753.74
1811.00	17733.46
1812.00	17643.74
1813.00	17696.01
1814.00	17577.42
1815.00	17602.39
1816.00	17417.49
1817.00	17367.56
1818.00	17242.73
1819.00	17239.61
1820.00	17185.77
1821.00	17202.16
1822.00	17196.70
1823.00	17049.24
1824.00	16982.15
1825.00	16979.81
1826.00	17084.35
1827.00	17064.85
1828.00	17005.55
1829.00	16947.82
1830.00	16734.05
1831.00	16614.68
1832.00	16581.14
1833.00	16647.45
1834.00	16630.29
1835.00	16477.37
1836.00	16342.40
1837.00	16311.97
1838.00	16375.17
1839.00	16453.97
1840.00	16456.31
1841.00	16427.44
1842.00	16357.22
1843.00	16201.97
1844.00	16124.73
1845.00	16027.99
1846.00	15925.79
1847.00	15729.18
1848.00	15694.07
1849.00	15665.99
1850.00	15652.72
1851.00	15598.89
1852.00	15552.08
1853.00	15513.07
1854.00	15460.80
1855.00	15353.91
1856.00	15347.67
1857.00	15300.86
1858.00	15362.50
1859.00	15364.84
1860.00	15307.10
1861.00	15208.02
1862.00	15111.28
1863.00	15046.52
1864.00	14976.31
1865.00	14917.79
1866.00	14918.57
1867.00	14945.10
1868.00	14878.79
1869.00	14801.55
1870.00	14700.90
1871.00	14654.09
1872.00	14579.20
1873.00	14485.58
1874.00	14450.47
1875.00	14448.91
1876.00	14387.27
1877.00	14324.86
1878.00	14242.94
1879.00	14185.99
1880.00	14097.83
1881.00	13976.12
1882.00	13926.19
1883.00	13902.78
1884.00	13870.01
1885.00	13809.16
1886.00	13690.57
1887.00	13671.85
1888.00	13540.78
1889.00	13497.09
1890.00	13447.16
1891.00	13433.89
1892.00	13345.73
1893.00	13337.93
1894.00	13447.16
1895.00	13489.29
1896.00	13364.46
1897.00	13234.95
1898.00	13066.43
1899.00	13086.72
1900.00	13061.75
1901.00	13047.71
1902.00	12895.57
1903.00	12615.49
1904.00	12290.93
1905.00	11636.36
1906.00	10845.26
1907.00	9936.35
1908.00	9149.15
1909.00	8484.44
1910.00	8095.91
1911.00	7885.26
1912.00	7959.38
1913.00	8180.17
1914.00	8549.98
1915.00	9004.04
1916.00	9398.03
1917.00	9771.74
1918.00	9894.22
1919.00	9994.87
1920.00	9939.48
1921.00	9843.51
1922.00	9727.27
1923.00	9631.30
1924.00	9576.69
1925.00	9477.61
1926.00	9449.52
1927.00	9462.79
1928.00	9483.07
1929.00	9473.71
1930.00	9574.35
1931.00	9638.33
1932.00	9781.88
1933.00	9781.10
1934.00	9822.45
1935.00	9800.60
1936.00	9810.75
1937.00	9865.36
1938.00	9980.04
1939.00	10118.92
1940.00	10191.47
1941.00	10203.96
1942.00	10178.99
1943.00	10165.73
1944.00	10135.30
1945.00	10122.82
1946.00	10124.38
1947.00	10131.40
1948.00	10108.77
1949.00	10097.07
1950.00	10056.50
1951.00	10008.91
1952.00	9902.03
1953.00	9872.38
1954.00	9843.51
1955.00	9792.02
1956.00	9642.23
1957.00	9623.50
1958.00	9592.30
1959.00	9462.01
1960.00	9355.12
1961.00	9234.97
1962.00	9235.75
1963.00	9193.62
1964.00	9131.99
1965.00	9125.75
1966.00	9082.06
1967.00	9079.72
1968.00	9089.08
1969.00	9057.09
1970.00	9103.90
1971.00	9092.20
1972.00	9043.05
1973.00	9049.29
1974.00	8987.66
1975.00	8994.68
1976.00	8946.31
1977.00	8970.49
1978.00	9022.77
1979.00	9036.81
1980.00	9090.64
1981.00	9111.71
1982.00	9188.94
1983.00	9163.20
1984.00	9168.66
1985.00	9038.37
1986.00	9047.73
1987.00	8941.63
1988.00	8836.30
1989.00	8683.39
1990.00	8552.32
1991.00	8516.43
1992.00	8419.69
1993.00	8413.45
1994.00	8436.07
1995.00	8448.55
1996.00	8295.64
1997.00	8122.44
1998.00	8058.46
1999.00	8038.18
2000.00	8076.41
2001.00	8037.40
2002.00	8082.65
2003.00	8031.94
2004.00	7966.40
2005.00	7872.78
2006.00	7790.08
2007.00	7751.85
2008.00	7687.88
2009.00	7655.89
2010.00	7579.43
2011.00	7544.33
2012.00	7507.66
2013.00	7529.50
2014.00	7527.94
2015.00	7502.20
2016.00	7440.56
2017.00	7402.33
2018.00	7365.67
2019.00	7343.04
2020.00	7309.49
2021.00	7320.42
2022.00	7260.34
2023.00	7133.95
2024.00	7070.76
2025.00	7017.71
2026.00	7085.58
2027.00	6991.18
2028.00	7025.51
2029.00	7091.04
2030.00	7204.95
2031.00	7236.16
2032.00	7140.97
2033.00	7059.06
2034.00	7020.83
2035.00	7002.88
2036.00	7007.56
2037.00	7013.03
2038.00	7059.84
2039.00	6998.20
2040.00	6959.19
2041.00	6877.27
2042.00	6875.71
2043.00	6811.74
2044.00	6789.11
2045.00	6721.24
2046.00	6627.62
2047.00	6497.33
>>>>>End Processed Spectral Data<<<<<
