SpectraSuite Data File
++++++++++++++++++++++++++++++++++++
Date: Thu Nov 16 13:32:46 EST 2017
User: cheriyan
Dark Spectrum Present: No
Reference Spectrum Present: No
Number of Sampled Component Spectra: 1
Spectrometers: USB2+H05261
Integration Time (usec): 90000 (USB2+H05261)
Spectra Averaged: 1 (USB2+H05261)
Boxcar Smoothing: 1 (USB2+H05261)
Correct for Electrical Dark: No (USB2+H05261)
Strobe/Lamp Enabled: No (USB2+H05261)
Correct for Detector Non-linearity: No (USB2+H05261)
Correct for Stray Light: No (USB2+H05261)
Number of Pixels in Processed Spectrum: 2048
>>>>>Begin Processed Spectral Data<<<<<
0.00	348.74
1.00	348.74
2.00	328.46
3.00	302.71
4.00	269.16
5.00	244.20
6.00	242.64
7.00	241.86
8.00	256.68
9.00	237.17
10.00	248.88
11.00	246.54
12.00	257.46
13.00	234.83
14.00	247.32
15.00	263.70
16.00	282.42
17.00	272.28
18.00	268.38
19.00	253.56
20.00	259.02
21.00	269.16
22.00	308.95
23.00	787.20
24.00	2502.81
25.00	4367.44
26.00	5849.78
27.00	5997.23
28.00	5821.69
29.00	5545.51
30.00	5252.16
31.00	5191.31
32.00	5242.02
33.00	5379.33
34.00	5351.24
35.00	5205.35
36.00	5008.75
37.00	4848.03
38.00	4774.69
39.00	4824.62
40.00	4968.96
41.00	5018.89
42.00	4950.23
43.00	4830.09
44.00	4916.69
45.00	5168.68
46.00	5548.63
47.00	5817.79
48.00	5968.37
49.00	6000.35
50.00	5955.88
51.00	5905.95
52.00	5875.52
53.00	5921.56
54.00	6054.97
55.00	6279.66
56.00	6551.16
57.00	6873.37
58.00	7133.95
59.00	7355.52
60.00	7475.67
61.00	7519.36
62.00	7405.45
63.00	7236.94
64.00	6928.77
65.00	6714.22
66.00	6413.07
67.00	6250.79
68.00	6068.23
69.00	6136.10
70.00	6268.73
71.00	6574.56
72.00	6882.74
73.00	7116.79
74.00	7186.22
75.00	7038.77
76.00	6844.51
77.00	6582.37
78.00	6296.04
79.00	6034.68
80.00	5740.55
81.00	5505.72
82.00	5242.02
83.00	5068.82
84.00	4855.05
85.00	4725.54
86.00	4625.68
87.00	4617.10
88.00	4651.42
89.00	4759.09
90.00	5016.55
91.00	5380.89
92.00	5790.49
93.00	6158.73
94.00	6484.06
95.00	6700.95
96.00	6807.06
97.00	6750.11
98.00	6541.80
99.00	6360.80
100.00	6239.87
101.00	6390.44
102.00	6615.91
103.00	6843.73
104.00	6884.30
105.00	6828.90
106.00	6746.20
107.00	6700.17
108.00	6709.54
109.00	6813.30
110.00	6874.93
111.00	6842.95
112.00	6788.33
113.00	6793.80
114.00	6835.14
115.00	6933.45
116.00	7181.54
117.00	7603.62
118.00	8022.58
119.00	8390.04
120.00	8610.83
121.00	8664.66
122.00	8631.12
123.00	8639.70
124.00	8820.70
125.00	9077.38
126.00	9335.62
127.00	9630.52
128.00	9821.67
129.00	9868.48
130.00	9686.70
131.00	9379.31
132.00	9000.14
133.00	8532.81
134.00	7957.04
135.00	7211.19
136.00	6344.41
137.00	5602.46
138.00	5044.63
139.00	4855.83
140.00	4968.18
141.00	5559.55
142.00	6326.47
143.00	7158.92
144.00	7916.47
145.00	8624.87
146.00	9266.96
147.00	9793.58
148.00	10150.90
149.00	10390.42
150.00	10405.24
151.00	10135.30
152.00	9571.23
153.00	8739.56
154.00	7849.38
155.00	6899.90
156.00	6171.21
157.00	5945.74
158.00	6293.70
159.00	7066.08
160.00	8151.31
161.00	9369.16
162.00	10601.85
163.00	11463.94
164.00	12060.00
165.00	12538.25
166.00	12996.21
167.00	13296.58
168.00	13543.12
169.00	13738.94
170.00	13958.17
171.00	14094.71
172.00	14093.15
173.00	14215.63
174.00	14262.44
175.00	14463.73
176.00	14569.05
177.00	14625.23
178.00	14821.05
179.00	15161.21
180.00	15571.58
181.00	15761.95
182.00	15799.40
183.00	15867.27
184.00	15957.77
185.00	16004.58
186.00	15908.62
187.00	15946.85
188.00	15747.12
189.00	15606.69
190.00	15340.65
191.00	15445.20
192.00	15694.85
193.00	16006.14
194.00	16148.14
195.00	15944.51
196.00	15669.11
197.00	15428.81
198.00	15463.14
199.00	15541.16
200.00	15655.06
201.00	15790.81
202.00	15850.11
203.00	15806.42
204.00	15626.98
205.00	15478.74
206.00	15268.09
207.00	15354.69
208.00	15501.37
209.00	15766.63
210.00	15882.10
211.00	15871.95
212.00	15814.22
213.00	15796.28
214.00	16088.84
215.00	16475.03
216.00	16866.68
217.00	17188.11
218.00	17502.53
219.00	17855.95
220.00	17913.68
221.00	17912.90
222.00	17504.09
223.00	16954.84
224.00	16260.48
225.00	15756.49
226.00	15578.61
227.00	15783.79
228.00	16067.00
229.00	16566.31
230.00	17174.07
231.00	17904.32
232.00	18407.53
233.00	18782.02
234.00	18914.65
235.00	19091.75
236.00	19085.51
237.00	19039.48
238.00	19005.93
239.00	18950.54
240.00	18940.40
241.00	18701.66
242.00	18604.14
243.00	18639.25
244.00	19019.97
245.00	19388.22
246.00	19619.15
247.00	19581.70
248.00	19367.93
249.00	19297.72
250.00	19373.39
251.00	19611.35
252.00	19732.28
253.00	19655.82
254.00	19705.75
255.00	19919.52
256.00	20374.36
257.00	20791.76
258.00	21117.87
259.00	21138.16
260.00	21014.89
261.00	20743.39
262.00	20382.95
263.00	20046.69
264.00	19846.96
265.00	19904.70
266.00	20004.56
267.00	20176.98
268.00	20230.03
269.00	20199.60
270.00	20280.74
271.00	20417.27
272.00	20860.41
273.00	21067.16
274.00	21177.17
275.00	20905.67
276.00	20574.87
277.00	20275.28
278.00	20085.70
279.00	20237.05
280.00	20852.61
281.00	21448.67
282.00	21959.69
283.00	22240.55
284.00	22299.06
285.00	22261.62
286.00	22143.81
287.00	21990.11
288.00	21894.93
289.00	21318.38
290.00	20872.90
291.00	20209.75
292.00	20123.15
293.00	20341.60
294.00	20701.26
295.00	20971.98
296.00	21052.34
297.00	21141.28
298.00	21271.57
299.00	21347.25
300.00	21493.92
301.00	21231.78
302.00	21089.79
303.00	20971.98
304.00	20936.87
305.00	20903.32
306.00	20637.28
307.00	20712.96
308.00	20506.21
309.00	20528.06
310.00	20512.46
311.00	20820.63
312.00	20858.85
313.00	20762.89
314.00	20203.50
315.00	19589.50
316.00	19238.42
317.00	19320.34
318.00	19697.17
319.00	19965.55
320.00	20322.09
321.00	20462.52
322.00	20386.07
323.00	20184.00
324.00	19948.39
325.00	19818.10
326.00	19645.68
327.00	19381.98
328.00	18821.03
329.00	17987.80
330.00	17234.92
331.00	16362.69
332.00	15704.21
333.00	15136.24
334.00	15062.91
335.00	15276.68
336.00	15981.18
337.00	17163.15
338.00	18922.45
339.00	20771.47
340.00	22341.19
341.00	23010.59
342.00	22635.32
343.00	21905.07
344.00	21313.70
345.00	21412.00
346.00	21849.68
347.00	22543.26
348.00	22974.70
349.00	22902.92
350.00	22026.78
351.00	21061.70
352.00	20324.43
353.00	20340.82
354.00	20732.47
355.00	21445.55
356.00	22100.12
357.00	22640.00
358.00	22905.26
359.00	23165.84
360.00	23326.56
361.00	23878.15
362.00	24198.02
363.00	24682.51
364.00	24804.22
365.00	24857.27
366.00	24776.91
367.00	24623.22
368.00	24462.50
369.00	24087.23
370.00	23963.18
371.00	23671.40
372.00	23406.14
373.00	22837.39
374.00	22273.32
375.00	21810.67
376.00	21493.14
377.00	21668.68
378.00	22247.57
379.00	22907.60
380.00	23555.93
381.00	24154.33
382.00	24478.88
383.00	24825.28
384.00	24627.12
385.00	24543.64
386.00	24259.65
387.00	24511.65
388.00	24839.33
389.00	25530.56
390.00	26079.03
391.00	26629.06
392.00	26983.26
393.00	27440.44
394.00	27690.10
395.00	27821.17
396.00	27825.85
397.00	28092.67
398.00	28429.71
399.00	28692.63
400.00	28515.53
401.00	28347.79
402.00	28234.66
403.00	28454.67
404.00	28662.98
405.00	28806.53
406.00	29080.38
407.00	28912.64
408.00	28610.71
409.00	28518.65
410.00	28743.34
411.00	29187.26
412.00	28835.40
413.00	28146.50
414.00	27262.56
415.00	26735.94
416.00	26643.10
417.00	26822.54
418.00	27208.73
419.00	27537.18
420.00	27907.77
421.00	28423.47
422.00	28965.69
423.00	29362.02
424.00	29608.56
425.00	29731.05
426.00	29553.16
427.00	29261.38
428.00	29088.18
429.00	29192.72
430.00	29219.25
431.00	29254.36
432.00	29185.70
433.00	29303.51
434.00	29394.79
435.00	29564.09
436.00	29720.12
437.00	29888.64
438.00	30092.27
439.00	30474.56
440.00	31041.74
441.00	31693.19
442.00	31854.69
443.00	31742.35
444.00	31456.80
445.00	31362.40
446.00	31130.69
447.00	31033.16
448.00	30962.95
449.00	30757.76
450.00	30527.61
451.00	29945.59
452.00	29469.69
453.00	28697.31
454.00	28354.03
455.00	28219.06
456.00	28630.21
457.00	29228.61
458.00	29823.89
459.00	30054.82
460.00	30302.14
461.00	30459.73
462.00	30654.78
463.00	30233.48
464.00	29957.30
465.00	29777.08
466.00	30000.21
467.00	30348.17
468.00	30634.49
469.00	31110.40
470.00	31491.13
471.00	31771.21
472.00	31885.12
473.00	31829.73
474.00	32070.80
475.00	32009.17
476.00	32205.77
477.00	32399.26
478.00	32679.34
479.00	32932.90
480.00	32567.77
481.00	32266.63
482.00	31571.49
483.00	31206.36
484.00	31189.98
485.00	31534.04
486.00	31980.30
487.00	31977.96
488.00	31898.38
489.00	31868.73
490.00	31837.53
491.00	31859.37
492.00	31887.46
493.00	32123.07
494.00	32226.06
495.00	32289.25
496.00	32421.88
497.00	32776.08
498.00	33039.78
499.00	33220.78
500.00	33127.16
501.00	33149.01
502.00	33287.88
503.00	33379.94
504.00	33463.42
505.00	33595.27
506.00	33814.50
507.00	34106.29
508.00	33949.47
509.00	33915.14
510.00	33713.08
511.00	33641.30
512.00	33429.87
513.00	33362.78
514.00	33333.13
515.00	33302.70
516.00	33173.19
517.00	32787.00
518.00	32402.38
519.00	31981.08
520.00	32284.57
521.00	32460.89
522.00	32696.50
523.00	32850.20
524.00	33183.34
525.00	33507.89
526.00	33181.77
527.00	32792.47
528.00	32112.15
529.00	31619.86
530.00	31432.61
531.00	31463.82
532.00	31823.48
533.00	32183.15
534.00	32466.35
535.00	32681.68
536.00	32331.38
537.00	32127.75
538.00	32197.19
539.00	32584.16
540.00	32920.42
541.00	32831.47
542.00	32848.64
543.00	33019.50
544.00	33216.10
545.00	33242.63
546.00	32752.68
547.00	32286.91
548.00	31917.11
549.00	31928.03
550.00	31886.68
551.00	31821.14
552.00	31932.71
553.00	32086.40
554.00	32484.30
555.00	32925.88
556.00	33396.32
557.00	33979.12
558.00	34511.98
559.00	35077.61
560.00	35208.68
561.00	35125.98
562.00	34630.57
563.00	34192.89
564.00	33838.69
565.00	34057.14
566.00	34421.48
567.00	34428.50
568.00	34359.84
569.00	34302.89
570.00	34890.37
571.00	35437.27
572.00	35734.52
573.00	35754.02
574.00	35706.43
575.00	35888.99
576.00	36062.19
577.00	35963.11
578.00	35875.73
579.00	35568.34
580.00	35618.27
581.00	35485.64
582.00	35547.28
583.00	35452.09
584.00	35676.79
585.00	35969.35
586.00	36649.67
587.00	36951.60
588.00	37301.90
589.00	37767.66
590.00	38433.16
591.00	38886.44
592.00	39020.63
593.00	38926.23
594.00	38907.51
595.00	38838.85
596.00	39036.23
597.00	39340.50
598.00	39770.38
599.00	40429.63
600.00	40820.50
601.00	40835.33
602.00	40779.93
603.00	40740.14
604.00	41154.42
605.00	41498.48
606.00	41650.61
607.00	41745.01
608.00	41831.61
609.00	42263.05
610.00	42615.69
611.00	42816.20
612.00	43040.11
613.00	43378.71
614.00	43519.92
615.00	43617.44
616.00	43601.06
617.00	43582.34
618.00	43721.99
619.00	43752.41
620.00	43949.80
621.00	44203.36
622.00	44331.31
623.00	44683.17
624.00	44488.90
625.00	44423.37
626.00	44164.35
627.00	44349.25
628.00	44626.21
629.00	45063.89
630.00	45571.01
631.00	45440.72
632.00	44690.97
633.00	43748.51
634.00	42454.98
635.00	40866.53
636.00	38962.12
637.00	38152.29
638.00	38524.44
639.00	39605.77
640.00	40972.64
641.00	42188.16
642.00	43177.42
643.00	44015.33
644.00	44754.94
645.00	45718.46
646.00	46639.08
647.00	47315.49
648.00	47874.88
649.00	48176.81
650.00	48116.73
651.00	47659.55
652.00	47047.11
653.00	47099.38
654.00	47615.86
655.00	48642.57
656.00	49485.95
657.00	50277.05
658.00	50822.39
659.00	51271.00
660.00	51436.39
661.00	51387.24
662.00	51266.31
663.00	50976.87
664.00	50825.51
665.00	50597.70
666.00	50788.84
667.00	50626.57
668.00	50359.75
669.00	49751.21
670.00	49337.71
671.00	49380.62
672.00	49925.97
673.00	50889.49
674.00	51819.46
675.00	52485.73
676.00	52541.13
677.00	52440.48
678.00	52093.30
679.00	51994.22
680.00	52054.29
681.00	52356.22
682.00	52878.16
683.00	53387.62
684.00	53944.67
685.00	54374.55
686.00	54646.83
687.00	54717.82
688.00	54390.15
689.00	54056.23
690.00	53646.64
691.00	53551.46
692.00	53541.31
693.00	54009.42
694.00	54468.17
695.00	54789.60
696.00	54780.24
697.00	54833.29
698.00	55062.66
699.00	55219.48
700.00	55339.63
701.00	55327.14
702.00	55246.01
703.00	54927.69
704.00	54459.58
705.00	53943.89
706.00	53812.04
707.00	53895.52
708.00	54383.13
709.00	54788.82
710.00	55243.66
711.00	55505.80
712.00	55629.85
713.00	55668.86
714.00	55462.11
715.00	55263.17
716.00	54749.03
717.00	54546.97
718.00	54199.01
719.00	54153.76
720.00	54075.74
721.00	53941.55
722.00	53916.58
723.00	53799.55
724.00	53797.99
725.00	53715.29
726.00	53744.16
727.00	54184.96
728.00	54456.46
729.00	54802.08
730.00	54923.79
731.00	55232.74
732.00	55423.11
733.00	55438.71
734.00	55207.00
735.00	54899.61
736.00	54469.73
737.00	54135.81
738.00	53849.49
739.00	53960.27
740.00	54358.94
741.00	54891.80
742.00	55210.12
743.00	55306.08
744.00	55440.27
745.00	55769.50
746.00	56214.99
747.00	56584.79
748.00	56817.28
749.00	56938.21
750.00	56920.27
751.00	56722.10
752.00	56573.87
753.00	56322.65
754.00	56212.65
755.00	56088.60
756.00	56072.99
757.00	55878.73
758.00	55671.98
759.00	55337.29
760.00	55088.41
761.00	54977.62
762.00	55218.70
763.00	55608.79
764.00	55982.49
765.00	56295.35
766.00	56718.98
767.00	56958.50
768.00	56980.34
769.00	56807.14
770.00	56701.82
771.00	56517.70
772.00	56487.27
773.00	56380.38
774.00	56498.97
775.00	56466.98
776.00	56441.24
777.00	56493.51
778.00	56624.58
779.00	56947.57
780.00	57144.18
781.00	57424.26
782.00	57497.60
783.00	57581.86
784.00	57332.20
785.00	56937.43
786.00	56488.05
787.00	56203.28
788.00	56200.94
789.00	56310.17
790.00	56354.64
791.00	56402.23
792.00	56360.10
793.00	56248.53
794.00	56061.29
795.00	55796.81
796.00	55829.58
797.00	55778.87
798.00	55847.52
799.00	55871.71
800.00	56055.83
801.00	56161.93
802.00	56303.15
803.00	56435.00
804.00	56721.32
805.00	56940.55
806.00	57025.59
807.00	56751.75
808.00	56020.72
809.00	54923.01
810.00	53542.88
811.00	52165.08
812.00	51029.92
813.00	50544.65
814.00	51036.16
815.00	52355.44
816.00	53829.98
817.00	54693.64
818.00	54651.51
819.00	53963.39
820.00	53292.44
821.00	53143.42
822.00	53462.52
823.00	54107.72
824.00	54557.89
825.00	55001.03
826.00	55215.58
827.00	55658.72
828.00	56103.42
829.00	56555.14
830.00	56782.18
831.00	56715.86
832.00	56547.34
833.00	56197.82
834.00	56147.11
835.00	56200.94
836.00	56566.85
837.00	56784.52
838.00	56963.18
839.00	56928.07
840.00	57106.73
841.00	57283.05
842.00	57362.63
843.00	57116.87
844.00	56678.41
845.00	56205.62
846.00	55863.13
847.00	55757.02
848.00	55899.01
849.00	56232.15
850.00	56607.42
851.00	57117.65
852.00	57418.02
853.00	57727.75
854.00	57833.08
855.00	57992.23
856.00	57894.71
857.00	57674.70
858.00	57457.81
859.00	57320.50
860.00	57286.17
861.00	57381.35
862.00	57566.26
863.00	57697.33
864.00	57400.86
865.00	56821.97
866.00	55845.18
867.00	54918.33
868.00	54021.12
869.00	53524.93
870.00	53455.50
871.00	53660.68
872.00	54169.36
873.00	54736.55
874.00	55410.62
875.00	55900.57
876.00	56262.58
877.00	56468.54
878.00	56605.08
879.00	56801.68
880.00	57130.92
881.00	57537.39
882.00	57741.02
883.00	57882.23
884.00	57737.12
885.00	57446.89
886.00	57000.63
887.00	56760.33
888.00	56598.83
889.00	56667.49
890.00	56853.17
891.00	57253.40
892.00	57546.75
893.00	57653.64
894.00	57602.14
895.00	57550.65
896.00	57568.60
897.00	57506.96
898.00	57331.42
899.00	57151.20
900.00	56848.49
901.00	56474.01
902.00	55922.42
903.00	55455.09
904.00	55021.31
905.00	54953.44
906.00	55132.88
907.00	55627.51
908.00	55937.24
909.00	56410.81
910.00	56512.23
911.00	56587.91
912.00	56278.18
913.00	56206.40
914.00	56094.84
915.00	56213.43
916.00	56260.24
917.00	56448.26
918.00	56655.79
919.00	56815.72
920.00	57064.60
921.00	57260.43
922.00	57485.12
923.00	57447.67
924.00	57162.12
925.00	56773.59
926.00	56369.46
927.00	55913.06
928.00	55486.30
929.00	55254.59
930.00	55288.91
931.00	55561.98
932.00	55889.65
933.00	56177.54
934.00	56299.25
935.00	56335.13
936.00	56339.82
937.00	56377.26
938.00	56222.79
939.00	56147.89
940.00	56013.70
941.00	55834.26
942.00	55526.09
943.00	55247.57
944.00	55066.56
945.00	55025.21
946.00	54958.12
947.00	54829.39
948.00	54701.44
949.00	54434.62
950.00	54298.09
951.00	54049.99
952.00	53951.69
953.00	54051.55
954.00	54298.87
955.00	54632.00
956.00	54898.83
957.00	55125.86
958.00	55264.73
959.00	55416.86
960.00	55311.54
961.00	55189.83
962.00	55075.15
963.00	55048.62
964.00	55100.89
965.00	54905.85
966.00	54855.14
967.00	54862.94
968.00	55036.14
969.00	55272.53
970.00	55649.36
971.00	55938.02
972.00	56067.53
973.00	55664.96
974.00	55398.14
975.00	55309.98
976.00	55472.26
977.00	55376.29
978.00	55288.91
979.00	55166.43
980.00	55194.51
981.00	55307.64
982.00	55350.55
983.00	55405.16
984.00	55161.75
985.00	55089.97
986.00	54951.88
987.00	54946.42
988.00	55068.90
989.00	55007.27
990.00	55033.80
991.00	54615.62
992.00	54372.99
993.00	53964.17
994.00	54028.15
995.00	54309.79
996.00	54608.60
997.00	54897.27
998.00	55020.53
999.00	55189.05
1000.00	55176.57
1001.00	55115.72
1002.00	55024.43
1003.00	54910.53
1004.00	54853.58
1005.00	54921.45
1006.00	54959.68
1007.00	55014.29
1008.00	54922.23
1009.00	54688.18
1010.00	54561.01
1011.00	54352.70
1012.00	54411.99
1013.00	54274.68
1014.00	54330.86
1015.00	54311.35
1016.00	54427.60
1017.00	54663.99
1018.00	54906.63
1019.00	55075.15
1020.00	54943.30
1021.00	54728.75
1022.00	54380.79
1023.00	54055.45
1024.00	53900.20
1025.00	53891.62
1026.00	54156.88
1027.00	54217.73
1028.00	54358.16
1029.00	54281.70
1030.00	54447.10
1031.00	54648.39
1032.00	54833.29
1033.00	54903.51
1034.00	54810.67
1035.00	54838.75
1036.00	54887.12
1037.00	54818.47
1038.00	54711.58
1039.00	54442.42
1040.00	54387.81
1041.00	54185.74
1042.00	54084.32
1043.00	53843.24
1044.00	53779.27
1045.00	53684.09
1046.00	53613.87
1047.00	53384.50
1048.00	53148.10
1049.00	52881.28
1050.00	52954.62
1051.00	53038.10
1052.00	53298.68
1053.00	53356.41
1054.00	53557.70
1055.00	53480.46
1056.00	53249.53
1057.00	52802.49
1058.00	52472.47
1059.00	51949.75
1060.00	51683.71
1061.00	51537.82
1062.00	51727.40
1063.00	51916.20
1064.00	51954.43
1065.00	52002.02
1066.00	51867.83
1067.00	52019.97
1068.00	52087.06
1069.00	52435.80
1070.00	52702.62
1071.00	53086.47
1072.00	53354.85
1073.00	53489.04
1074.00	53281.52
1075.00	52957.74
1076.00	52515.38
1077.00	52259.48
1078.00	52037.91
1079.00	51991.10
1080.00	51950.53
1081.00	52051.95
1082.00	52149.48
1083.00	52259.48
1084.00	52318.77
1085.00	52463.11
1086.00	52577.01
1087.00	52575.45
1088.00	52273.52
1089.00	52096.42
1090.00	51907.62
1091.00	51920.88
1092.00	51873.29
1093.00	51927.13
1094.00	52020.75
1095.00	52161.18
1096.00	52044.15
1097.00	51991.88
1098.00	51827.26
1099.00	51597.11
1100.00	51267.87
1101.00	50781.04
1102.00	50603.16
1103.00	50380.81
1104.00	50415.14
1105.00	50628.13
1106.00	50777.92
1107.00	50979.21
1108.00	50908.21
1109.00	51126.66
1110.00	51390.36
1111.00	51621.30
1112.00	51616.61
1113.00	51420.79
1114.00	51263.19
1115.00	51053.33
1116.00	50651.53
1117.00	50302.79
1118.00	49877.60
1119.00	49632.62
1120.00	49453.96
1121.00	49473.46
1122.00	49805.82
1123.00	49932.21
1124.00	50007.11
1125.00	49856.53
1126.00	49845.61
1127.00	49769.93
1128.00	49512.47
1129.00	49212.88
1130.00	48881.31
1131.00	48481.08
1132.00	48079.28
1133.00	47697.78
1134.00	47621.32
1135.00	47627.56
1136.00	47850.69
1137.00	48055.10
1138.00	48410.08
1139.00	48790.81
1140.00	49180.90
1141.00	49275.30
1142.00	49482.83
1143.00	49513.25
1144.00	49549.14
1145.00	49483.61
1146.00	49386.86
1147.00	49294.02
1148.00	49035.78
1149.00	48985.07
1150.00	48914.86
1151.00	48937.48
1152.00	48990.53
1153.00	49020.96
1154.00	48803.29
1155.00	48445.19
1156.00	48117.51
1157.00	48029.35
1158.00	47820.27
1159.00	47592.45
1160.00	47323.29
1161.00	47159.45
1162.00	47077.54
1163.00	47015.90
1164.00	47187.54
1165.00	47139.95
1166.00	47013.56
1167.00	46939.44
1168.00	47214.07
1169.00	47473.09
1170.00	47411.45
1171.00	47233.57
1172.00	47083.78
1173.00	47072.85
1174.00	46941.00
1175.00	46784.19
1176.00	46613.33
1177.00	46460.41
1178.00	45935.35
1179.00	45517.96
1180.00	45326.81
1181.00	45649.81
1182.00	45961.88
1183.00	46021.17
1184.00	46149.90
1185.00	46193.59
1186.00	46437.79
1187.00	46575.10
1188.00	46697.59
1189.00	46717.09
1190.00	46689.01
1191.00	46639.86
1192.00	46520.49
1193.00	46483.04
1194.00	46505.66
1195.00	46657.02
1196.00	46599.29
1197.00	46536.87
1198.00	46419.06
1199.00	46536.87
1200.00	46673.40
1201.00	46816.18
1202.00	46887.95
1203.00	46999.52
1204.00	47191.44
1205.00	47286.62
1206.00	47185.98
1207.00	47131.37
1208.00	46986.25
1209.00	47005.76
1210.00	46990.94
1211.00	47066.61
1212.00	46985.47
1213.00	46720.99
1214.00	46650.00
1215.00	46811.49
1216.00	46929.30
1217.00	46873.13
1218.00	46743.62
1219.00	46602.41
1220.00	46452.61
1221.00	46039.90
1222.00	45872.16
1223.00	45565.55
1224.00	45183.26
1225.00	44896.94
1226.00	44786.93
1227.00	44736.22
1228.00	44622.31
1229.00	44587.21
1230.00	44694.09
1231.00	44937.51
1232.00	45121.63
1233.00	45302.63
1234.00	45150.49
1235.00	44977.29
1236.00	44963.25
1237.00	44857.15
1238.00	44851.69
1239.00	44636.36
1240.00	44488.12
1241.00	44041.08
1242.00	43388.07
1243.00	42353.55
1244.00	41141.94
1245.00	39886.63
1246.00	38935.59
1247.00	38412.09
1248.00	38263.86
1249.00	38366.06
1250.00	38618.84
1251.00	39213.34
1252.00	40084.01
1253.00	41057.68
1254.00	41757.50
1255.00	42181.13
1256.00	42617.25
1257.00	42912.94
1258.00	43161.04
1259.00	42816.98
1260.00	42646.90
1261.00	42382.42
1262.00	42479.94
1263.00	42419.87
1264.00	42265.39
1265.00	42072.69
1266.00	41878.43
1267.00	41926.80
1268.00	42204.54
1269.00	42433.13
1270.00	42405.83
1271.00	42060.99
1272.00	41993.11
1273.00	42169.43
1274.00	42476.82
1275.00	42478.38
1276.00	42402.71
1277.00	42041.48
1278.00	41851.12
1279.00	41546.85
1280.00	41347.90
1281.00	41181.73
1282.00	41014.77
1283.00	41115.41
1284.00	41028.81
1285.00	41244.14
1286.00	41320.60
1287.00	41514.86
1288.00	41548.41
1289.00	41727.07
1290.00	41849.56
1291.00	41883.11
1292.00	41911.19
1293.00	41925.24
1294.00	41892.47
1295.00	41735.65
1296.00	41798.07
1297.00	41741.89
1298.00	41842.54
1299.00	41628.77
1300.00	41579.62
1301.00	41429.82
1302.00	41267.55
1303.00	41097.47
1304.00	40840.79
1305.00	40709.72
1306.00	40749.51
1307.00	40743.27
1308.00	40822.06
1309.00	40823.62
1310.00	41078.74
1311.00	41192.65
1312.00	41308.90
1313.00	41146.62
1314.00	41010.09
1315.00	40911.00
1316.00	40936.75
1317.00	40935.19
1318.00	40857.95
1319.00	40658.23
1320.00	40663.69
1321.00	40643.40
1322.00	40536.52
1323.00	40407.01
1324.00	40358.64
1325.00	40319.63
1326.00	40220.55
1327.00	39891.31
1328.00	39654.92
1329.00	39410.72
1330.00	39443.49
1331.00	39562.86
1332.00	39651.80
1333.00	39739.18
1334.00	40082.45
1335.00	40282.96
1336.00	40595.03
1337.00	40614.54
1338.00	40599.71
1339.00	40529.50
1340.00	40433.53
1341.00	40480.35
1342.00	40393.75
1343.00	40439.00
1344.00	40371.12
1345.00	40356.30
1346.00	40366.44
1347.00	40429.63
1348.00	40243.17
1349.00	39984.93
1350.00	39648.67
1351.00	39719.67
1352.00	39597.96
1353.00	39653.36
1354.00	39559.73
1355.00	39523.07
1356.00	39378.73
1357.00	39332.70
1358.00	39293.69
1359.00	39378.73
1360.00	39474.70
1361.00	39588.60
1362.00	39625.27
1363.00	39470.01
1364.00	39179.79
1365.00	39074.46
1366.00	38827.93
1367.00	38766.29
1368.00	38615.72
1369.00	38628.98
1370.00	38556.42
1371.00	38405.07
1372.00	38214.71
1373.00	38084.42
1374.00	38031.36
1375.00	38040.73
1376.00	38075.84
1377.00	37968.17
1378.00	37950.23
1379.00	37712.27
1380.00	37507.08
1381.00	37240.26
1382.00	37056.14
1383.00	36937.55
1384.00	36890.74
1385.00	37178.63
1386.00	37400.98
1387.00	37547.65
1388.00	37624.89
1389.00	37674.82
1390.00	37648.30
1391.00	37439.99
1392.00	37331.54
1393.00	37148.20
1394.00	37034.30
1395.00	36747.97
1396.00	36657.47
1397.00	36450.72
1398.00	36620.02
1399.00	36829.89
1400.00	36921.17
1401.00	36687.90
1402.00	36378.95
1403.00	36052.05
1404.00	35775.87
1405.00	35609.69
1406.00	35582.38
1407.00	35912.40
1408.00	36104.32
1409.00	36174.54
1410.00	36121.49
1411.00	36173.76
1412.00	36297.81
1413.00	36222.91
1414.00	35984.18
1415.00	35764.17
1416.00	35598.77
1417.00	35202.44
1418.00	34927.03
1419.00	34469.07
1420.00	34332.54
1421.00	33938.55
1422.00	33993.94
1423.00	34006.42
1424.00	34362.18
1425.00	34425.38
1426.00	34513.54
1427.00	34579.85
1428.00	34797.52
1429.00	34951.22
1430.00	35199.32
1431.00	35378.76
1432.00	35509.83
1433.00	35474.72
1434.00	35356.13
1435.00	35175.91
1436.00	34891.15
1437.00	34701.56
1438.00	34385.59
1439.00	34441.76
1440.00	34366.09
1441.00	34639.93
1442.00	34717.95
1443.00	34861.50
1444.00	34759.30
1445.00	34669.58
1446.00	34784.26
1447.00	34912.21
1448.00	34888.03
1449.00	34728.09
1450.00	34784.26
1451.00	34847.46
1452.00	34645.39
1453.00	34330.98
1454.00	34029.83
1455.00	33894.08
1456.00	33688.11
1457.00	33474.34
1458.00	33590.59
1459.00	33585.91
1460.00	33819.18
1461.00	33565.62
1462.00	33432.21
1463.00	33049.14
1464.00	32818.21
1465.00	32666.86
1466.00	32751.90
1467.00	32818.21
1468.00	32673.88
1469.00	32506.14
1470.00	32534.23
1471.00	32681.68
1472.00	32595.86
1473.00	32317.34
1474.00	32019.31
1475.00	31889.02
1476.00	31855.47
1477.00	31984.98
1478.00	31894.48
1479.00	31566.03
1480.00	31270.34
1481.00	31182.18
1482.00	31194.66
1483.00	31239.91
1484.00	31314.81
1485.00	31392.05
1486.00	31481.77
1487.00	31399.07
1488.00	31520.77
1489.00	31512.19
1490.00	31440.42
1491.00	31438.08
1492.00	31204.02
1493.00	31088.56
1494.00	30501.08
1495.00	29752.89
1496.00	29210.67
1497.00	28749.58
1498.00	28585.74
1499.00	28554.54
1500.00	28865.05
1501.00	29465.78
1502.00	29677.99
1503.00	29743.53
1504.00	29635.86
1505.00	29632.74
1506.00	29505.57
1507.00	29421.31
1508.00	29149.81
1509.00	29074.13
1510.00	28979.73
1511.00	28978.95
1512.00	28910.30
1513.00	28928.24
1514.00	29081.94
1515.00	29315.99
1516.00	29418.97
1517.00	29351.88
1518.00	29379.96
1519.00	29380.74
1520.00	29256.70
1521.00	28972.71
1522.00	28627.87
1523.00	28622.41
1524.00	28627.87
1525.00	28857.24
1526.00	29024.98
1527.00	29203.64
1528.00	29488.41
1529.00	29532.10
1530.00	29575.01
1531.00	29300.39
1532.00	29313.65
1533.00	29195.06
1534.00	29097.54
1535.00	28816.68
1536.00	28828.38
1537.00	28759.72
1538.00	28808.87
1539.00	28629.43
1540.00	28755.04
1541.00	28815.12
1542.00	28966.47
1543.00	29007.82
1544.00	29074.13
1545.00	29162.29
1546.00	29230.17
1547.00	29064.77
1548.00	28887.67
1549.00	28647.38
1550.00	28513.19
1551.00	28308.00
1552.00	28197.99
1553.00	28298.64
1554.00	28366.51
1555.00	28490.56
1556.00	28540.49
1557.00	28684.05
1558.00	28751.14
1559.00	28855.68
1560.00	28881.43
1561.00	28858.03
1562.00	28787.81
1563.00	28751.92
1564.00	28836.18
1565.00	28828.38
1566.00	28694.19
1567.00	28576.38
1568.00	28537.37
1569.00	28680.14
1570.00	28623.97
1571.00	28524.89
1572.00	28250.27
1573.00	28072.39
1574.00	27858.62
1575.00	27808.68
1576.00	27711.16
1577.00	27586.33
1578.00	27585.55
1579.00	27490.37
1580.00	27606.62
1581.00	27544.98
1582.00	27446.68
1583.00	27346.82
1584.00	27174.40
1585.00	27160.36
1586.00	27064.39
1587.00	27044.11
1588.00	27021.48
1589.00	27067.52
1590.00	26984.04
1591.00	26925.52
1592.00	26802.25
1593.00	26898.22
1594.00	26974.67
1595.00	26996.52
1596.00	27062.83
1597.00	27002.76
1598.00	26947.37
1599.00	26830.34
1600.00	26781.97
1601.00	26749.98
1602.00	26746.08
1603.00	26578.34
1604.00	26480.82
1605.00	26338.83
1606.00	26565.08
1607.00	26639.20
1608.00	26642.32
1609.00	26690.69
1610.00	26753.88
1611.00	26717.22
1612.00	26461.32
1613.00	26301.38
1614.00	26172.65
1615.00	26143.00
1616.00	26017.40
1617.00	25931.58
1618.00	25741.99
1619.00	25645.25
1620.00	25490.77
1621.00	25493.90
1622.00	25488.43
1623.00	25524.32
1624.00	25452.55
1625.00	25368.29
1626.00	25340.20
1627.00	25148.28
1628.00	24938.41
1629.00	24794.86
1630.00	24880.67
1631.00	24918.90
1632.00	24872.87
1633.00	24689.53
1634.00	24571.72
1635.00	24458.60
1636.00	24604.49
1637.00	24665.35
1638.00	24700.45
1639.00	24545.98
1640.00	24325.19
1641.00	24077.87
1642.00	23649.55
1643.00	23422.52
1644.00	23239.18
1645.00	23357.77
1646.00	23657.35
1647.00	24064.61
1648.00	24526.47
1649.00	24782.37
1650.00	24939.19
1651.00	24988.34
1652.00	24967.27
1653.00	25022.67
1654.00	24723.86
1655.00	24446.12
1656.00	24059.93
1657.00	23812.61
1658.00	23773.60
1659.00	23803.25
1660.00	23994.39
1661.00	23997.51
1662.00	24218.30
1663.00	24379.80
1664.00	24471.86
1665.00	24408.67
1666.00	24311.14
1667.00	24405.55
1668.00	24258.87
1669.00	24231.57
1670.00	24098.94
1671.00	24108.30
1672.00	24100.50
1673.00	24055.25
1674.00	24054.47
1675.00	23843.82
1676.00	23665.16
1677.00	23442.03
1678.00	23350.74
1679.00	23257.12
1680.00	23107.33
1681.00	23037.89
1682.00	22895.90
1683.00	22621.28
1684.00	22292.82
1685.00	21853.58
1686.00	21282.49
1687.00	20441.46
1688.00	19506.80
1689.00	18799.18
1690.00	18484.77
1691.00	18643.15
1692.00	19137.00
1693.00	19714.33
1694.00	20372.80
1695.00	20907.23
1696.00	21355.83
1697.00	21639.03
1698.00	21912.88
1699.00	22196.08
1700.00	22398.93
1701.00	22510.49
1702.00	22619.72
1703.00	22664.19
1704.00	22706.32
1705.00	22728.94
1706.00	22766.39
1707.00	22687.59
1708.00	22565.88
1709.00	22415.31
1710.00	22363.04
1711.00	22332.61
1712.00	22253.81
1713.00	22373.96
1714.00	22367.72
1715.00	22438.72
1716.00	22423.11
1717.00	22473.04
1718.00	22611.14
1719.00	22548.72
1720.00	22546.38
1721.00	22391.91
1722.00	22557.30
1723.00	22573.69
1724.00	22598.65
1725.00	22395.81
1726.00	22260.06
1727.00	22369.28
1728.00	22412.97
1729.00	22500.35
1730.00	22353.68
1731.00	22364.60
1732.00	22220.27
1733.00	22182.82
1734.00	22005.72
1735.00	21996.35
1736.00	21888.69
1737.00	21792.73
1738.00	21561.02
1739.00	21468.17
1740.00	21380.79
1741.00	21384.69
1742.00	21261.43
1743.00	21216.18
1744.00	21213.84
1745.00	21284.83
1746.00	21389.38
1747.00	21271.57
1748.00	21197.45
1749.00	21242.70
1750.00	21319.16
1751.00	21424.48
1752.00	21240.36
1753.00	21160.78
1754.00	21096.03
1755.00	21147.52
1756.00	21181.85
1757.00	20977.44
1758.00	20789.42
1759.00	20592.81
1760.00	20478.13
1761.00	20411.81
1762.00	20389.97
1763.00	20453.16
1764.00	20534.30
1765.00	20575.65
1766.00	20525.72
1767.00	20271.38
1768.00	20180.88
1769.00	20184.00
1770.00	20258.12
1771.00	20222.23
1772.00	20176.98
1773.00	20199.60
1774.00	20266.70
1775.00	20134.85
1776.00	20041.23
1777.00	19790.79
1778.00	19912.50
1779.00	19984.27
1780.00	20060.73
1781.00	19850.86
1782.00	19704.97
1783.00	19565.32
1784.00	19619.93
1785.00	19583.26
1786.00	19592.62
1787.00	19604.33
1788.00	19445.17
1789.00	19428.79
1790.00	19312.54
1791.00	19302.40
1792.00	19247.01
1793.00	19179.91
1794.00	19126.86
1795.00	19069.12
1796.00	18881.10
1797.00	18775.00
1798.00	18672.79
1799.00	18646.27
1800.00	18576.05
1801.00	18536.26
1802.00	18559.67
1803.00	18533.92
1804.00	18562.01
1805.00	18567.47
1806.00	18514.42
1807.00	18533.92
1808.00	18448.10
1809.00	18514.42
1810.00	18455.90
1811.00	18300.65
1812.00	18164.90
1813.00	17969.85
1814.00	18066.60
1815.00	18105.60
1816.00	18111.07
1817.00	18012.76
1818.00	17818.50
1819.00	17613.31
1820.00	17575.08
1821.00	17551.68
1822.00	17607.07
1823.00	17506.43
1824.00	17550.90
1825.00	17662.46
1826.00	17729.56
1827.00	17715.51
1828.00	17607.85
1829.00	17561.82
1830.00	17447.13
1831.00	17433.87
1832.00	17334.79
1833.00	17302.02
1834.00	17135.84
1835.00	17056.26
1836.00	16993.85
1837.00	16895.55
1838.00	16830.01
1839.00	16808.17
1840.00	16884.62
1841.00	16852.64
1842.00	16879.16
1843.00	16749.65
1844.00	16760.58
1845.00	16506.24
1846.00	16434.46
1847.00	16302.61
1848.00	16271.40
1849.00	16146.58
1850.00	16114.59
1851.00	16138.77
1852.00	16081.04
1853.00	16070.12
1854.00	16015.51
1855.00	16020.97
1856.00	15871.95
1857.00	15778.33
1858.00	15852.45
1859.00	15925.00
1860.00	15850.89
1861.00	15685.49
1862.00	15495.91
1863.00	15516.19
1864.00	15440.51
1865.00	15421.79
1866.00	15287.60
1867.00	15334.41
1868.00	15285.26
1869.00	15356.25
1870.00	15256.39
1871.00	15250.15
1872.00	15172.91
1873.00	15128.44
1874.00	15066.03
1875.00	14998.15
1876.00	14963.82
1877.00	14904.53
1878.00	14810.13
1879.00	14629.13
1880.00	14542.53
1881.00	14524.58
1882.00	14603.38
1883.00	14576.86
1884.00	14433.30
1885.00	14189.89
1886.00	13987.04
1887.00	13909.80
1888.00	13959.74
1889.00	13958.17
1890.00	13901.22
1891.00	13902.78
1892.00	13909.02
1893.00	13939.45
1894.00	13832.57
1895.00	13859.09
1896.00	13792.00
1897.00	13775.61
1898.00	13607.87
1899.00	13550.92
1900.00	13447.94
1901.00	13385.52
1902.00	13302.82
1903.00	13126.50
1904.00	12716.13
1905.00	12120.07
1906.00	11268.12
1907.00	10380.28
1908.00	9463.57
1909.00	8769.21
1910.00	8351.03
1911.00	8160.67
1912.00	8195.78
1913.00	8406.42
1914.00	8794.17
1915.00	9284.91
1916.00	9704.64
1917.00	10022.95
1918.00	10190.69
1919.00	10303.04
1920.00	10333.47
1921.00	10238.28
1922.00	10127.50
1923.00	9918.41
1924.00	9828.69
1925.00	9748.33
1926.00	9655.49
1927.00	9643.79
1928.00	9612.58
1929.00	9769.40
1930.00	9881.74
1931.00	10037.78
1932.00	10103.31
1933.00	10117.36
1934.00	10177.43
1935.00	10344.39
1936.00	10429.43
1937.00	10441.91
1938.00	10345.17
1939.00	10390.42
1940.00	10384.96
1941.00	10449.71
1942.00	10438.01
1943.00	10406.02
1944.00	10434.11
1945.00	10384.18
1946.00	10396.66
1947.00	10366.23
1948.00	10493.40
1949.00	10467.66
1950.00	10376.38
1951.00	10153.24
1952.00	10124.38
1953.00	10108.77
1954.00	10157.14
1955.00	10133.74
1956.00	10068.20
1957.00	10001.89
1958.00	9948.84
1959.00	9859.90
1960.00	9760.03
1961.00	9637.55
1962.00	9625.84
1963.00	9561.09
1964.00	9545.48
1965.00	9502.57
1966.00	9577.47
1967.00	9540.80
1968.00	9558.75
1969.00	9490.09
1970.00	9520.52
1971.00	9476.83
1972.00	9438.60
1973.00	9428.46
1974.00	9425.34
1975.00	9406.61
1976.00	9414.41
1977.00	9420.66
1978.00	9404.27
1979.00	9362.14
1980.00	9350.44
1981.00	9435.48
1982.00	9431.58
1983.00	9374.63
1984.00	9302.85
1985.00	9340.30
1986.00	9371.50
1987.00	9340.30
1988.00	9188.94
1989.00	9004.04
1990.00	8922.12
1991.00	8762.97
1992.00	8733.32
1993.00	8692.75
1994.00	8785.59
1995.00	8757.50
1996.00	8632.68
1997.00	8476.64
1998.00	8446.99
1999.00	8389.26
2000.00	8358.83
2001.00	8276.13
2002.00	8322.94
2003.00	8352.59
2004.00	8309.68
2005.00	8151.31
2006.00	8060.02
2007.00	7966.40
2008.00	8042.08
2009.00	8042.08
2010.00	8024.14
2011.00	7957.04
2012.00	7943.78
2013.00	7951.58
2014.00	7870.44
2015.00	7863.42
2016.00	7792.42
2017.00	7784.62
2018.00	7692.56
2019.00	7637.17
2020.00	7620.00
2021.00	7556.03
2022.00	7513.90
2023.00	7414.04
2024.00	7431.20
2025.00	7388.29
2026.00	7424.96
2027.00	7312.61
2028.00	7325.10
2029.00	7325.88
2030.00	7402.33
2031.00	7412.48
2032.00	7374.25
2033.00	7332.12
2034.00	7295.45
2035.00	7254.88
2036.00	7191.69
2037.00	7164.38
2038.00	7203.39
2039.00	7186.22
2040.00	7172.96
2041.00	7121.47
2042.00	7110.55
2043.00	7126.93
2044.00	7130.05
2045.00	7112.11
2046.00	7052.03
2047.00	6956.07
>>>>>End Processed Spectral Data<<<<<
