SpectraSuite Data File
++++++++++++++++++++++++++++++++++++
Date: Thu Nov 16 13:32:54 EST 2017
User: cheriyan
Dark Spectrum Present: No
Reference Spectrum Present: No
Number of Sampled Component Spectra: 1
Spectrometers: USB2+H05261
Integration Time (usec): 90000 (USB2+H05261)
Spectra Averaged: 1 (USB2+H05261)
Boxcar Smoothing: 1 (USB2+H05261)
Correct for Electrical Dark: No (USB2+H05261)
Strobe/Lamp Enabled: No (USB2+H05261)
Correct for Detector Non-linearity: No (USB2+H05261)
Correct for Stray Light: No (USB2+H05261)
Number of Pixels in Processed Spectrum: 2048
>>>>>Begin Processed Spectral Data<<<<<
0.00	372.15
1.00	372.15
2.00	351.08
3.00	324.55
4.00	276.96
5.00	269.16
6.00	254.34
7.00	246.54
8.00	233.27
9.00	227.81
10.00	270.72
11.00	273.06
12.00	266.04
13.00	234.83
14.00	234.05
15.00	256.68
16.00	280.08
17.00	273.84
18.00	280.86
19.00	269.16
20.00	276.18
21.00	277.74
22.00	316.75
23.00	766.14
24.00	2411.53
25.00	4202.04
26.00	5629.77
27.00	5736.65
28.00	5592.32
29.00	5307.55
30.00	5090.67
31.00	5020.45
32.00	5057.12
33.00	5139.82
34.00	5110.17
35.00	4961.94
36.00	4731.78
37.00	4602.27
38.00	4584.33
39.00	4689.65
40.00	4774.69
41.00	4809.02
42.00	4775.47
43.00	4698.24
44.00	4810.58
45.00	5032.93
46.00	5350.46
47.00	5614.17
48.00	5778.00
49.00	5803.75
50.00	5730.41
51.00	5689.06
52.00	5745.24
53.00	5843.54
54.00	5957.44
55.00	6150.93
56.00	6388.10
57.00	6668.97
58.00	6887.42
59.00	7052.03
60.00	7204.95
61.00	7211.19
62.00	7187.79
63.00	6984.94
64.00	6760.25
65.00	6466.12
66.00	6207.88
67.00	6055.75
68.00	5972.27
69.00	6016.74
70.00	6149.37
71.00	6360.80
72.00	6601.87
73.00	6756.35
74.00	6871.03
75.00	6778.19
76.00	6622.16
77.00	6372.50
78.00	6118.16
79.00	5824.81
80.00	5548.63
81.00	5406.64
82.00	5192.09
83.00	4975.98
84.00	4703.70
85.00	4551.56
86.00	4503.19
87.00	4484.47
88.00	4514.89
89.00	4512.55
90.00	4717.74
91.00	5129.67
92.00	5604.80
93.00	6020.64
94.00	6324.91
95.00	6575.34
96.00	6647.90
97.00	6562.08
98.00	6375.62
99.00	6235.19
100.00	6153.27
101.00	6200.86
102.00	6360.80
103.00	6533.22
104.00	6616.69
105.00	6577.69
106.00	6504.35
107.00	6445.06
108.00	6501.23
109.00	6613.57
110.00	6684.57
111.00	6640.10
112.00	6512.15
113.00	6505.91
114.00	6543.36
115.00	6819.54
116.00	7074.66
117.00	7417.16
118.00	7676.18
119.00	7977.33
120.00	8269.89
121.00	8326.07
122.00	8398.62
123.00	8376.00
124.00	8533.59
125.00	8640.48
126.00	8858.15
127.00	9204.55
128.00	9482.29
129.00	9554.07
130.00	9249.02
131.00	8937.73
132.00	8530.47
133.00	8147.40
134.00	7605.18
135.00	6978.70
136.00	6259.37
137.00	5508.06
138.00	4913.56
139.00	4684.19
140.00	4856.61
141.00	5392.59
142.00	6143.13
143.00	7004.44
144.00	7733.13
145.00	8393.16
146.00	8901.06
147.00	9479.95
148.00	9790.46
149.00	9959.76
150.00	9930.89
151.00	9686.70
152.00	9291.15
153.00	8500.05
154.00	7640.29
155.00	6683.79
156.00	6051.85
157.00	5794.39
158.00	6090.85
159.00	6830.46
160.00	7871.22
161.00	9026.67
162.00	10134.52
163.00	11120.67
164.00	11697.22
165.00	12107.59
166.00	12367.39
167.00	12744.22
168.00	13082.81
169.00	13338.71
170.00	13590.71
171.00	13638.30
172.00	13663.27
173.00	13692.91
174.00	13873.92
175.00	14019.81
176.00	14138.40
177.00	14307.69
178.00	14631.47
179.00	14933.40
180.00	15022.34
181.00	15171.35
182.00	15200.22
183.00	15396.04
184.00	15435.83
185.00	15431.15
186.00	15334.41
187.00	15349.23
188.00	15287.60
189.00	15170.57
190.00	14945.88
191.00	14995.81
192.00	15168.23
193.00	15553.64
194.00	15623.86
195.00	15468.60
196.00	15092.55
197.00	14926.38
198.00	15133.12
199.00	15255.61
200.00	15397.60
201.00	15310.22
202.00	15307.10
203.00	15193.98
204.00	15052.77
205.00	14915.45
206.00	14806.23
207.00	14840.56
208.00	15020.00
209.00	15232.21
210.00	15332.07
211.00	15254.05
212.00	15249.37
213.00	15388.24
214.00	15693.29
215.00	15992.88
216.00	16301.83
217.00	16603.76
218.00	16809.73
219.00	17125.70
220.00	17234.14
221.00	17319.18
222.00	16982.15
223.00	16378.29
224.00	15724.50
225.00	15144.05
226.00	14948.22
227.00	15037.16
228.00	15462.36
229.00	16036.57
230.00	16727.81
231.00	17352.73
232.00	17924.60
233.00	18262.42
234.00	18452.00
235.00	18522.22
236.00	18519.88
237.00	18539.38
238.00	18295.19
239.00	18114.19
240.00	17944.89
241.00	18004.18
242.00	18078.30
243.00	18120.43
244.00	18401.29
245.00	18590.88
246.00	18892.02
247.00	18882.66
248.00	18831.17
249.00	18698.54
250.00	18847.55
251.00	18993.45
252.00	19051.18
253.00	18930.25
254.00	19080.05
255.00	19318.78
256.00	19754.90
257.00	20006.12
258.00	20396.21
259.00	20427.42
260.00	20479.69
261.00	20161.37
262.00	19891.43
263.00	19438.15
264.00	19186.93
265.00	19149.48
266.00	19357.79
267.00	19594.96
268.00	19643.34
269.00	19643.34
270.00	19616.03
271.00	19683.13
272.00	20022.50
273.00	20289.32
274.00	20354.08
275.00	20056.83
276.00	19702.63
277.00	19425.67
278.00	19318.00
279.00	19562.20
280.00	20152.79
281.00	20794.10
282.00	21262.99
283.00	21504.06
284.00	21654.64
285.00	21568.82
286.00	21513.42
287.00	21330.86
288.00	21184.97
289.00	20698.14
290.00	20009.24
291.00	19432.69
292.00	19228.28
293.00	19440.49
294.00	19789.23
295.00	20145.77
296.00	20433.66
297.00	20451.60
298.00	20592.81
299.00	20446.14
300.00	20599.84
301.00	20362.66
302.00	20287.76
303.00	20201.16
304.00	20181.66
305.00	20290.10
306.00	20098.96
307.00	20028.74
308.00	19767.38
309.00	19696.39
310.00	19925.76
311.00	20344.72
312.00	20515.58
313.00	20294.00
314.00	19736.18
315.00	19084.73
316.00	18689.18
317.00	18613.50
318.00	19054.30
319.00	19374.17
320.00	19782.99
321.00	19889.09
322.00	19836.04
323.00	19523.19
324.00	19270.41
325.00	19087.07
326.00	19047.28
327.00	18895.92
328.00	18394.27
329.00	17607.07
330.00	16726.25
331.00	15838.41
332.00	15098.80
333.00	14541.75
334.00	14336.56
335.00	14605.72
336.00	15191.64
337.00	16418.08
338.00	18081.42
339.00	19960.09
340.00	21436.19
341.00	22013.52
342.00	21742.80
343.00	21194.33
344.00	20655.23
345.00	20782.40
346.00	21261.43
347.00	21844.22
348.00	22210.90
349.00	21994.79
350.00	21358.95
351.00	20393.09
352.00	19701.07
353.00	19651.14
354.00	20113.78
355.00	20716.08
356.00	21311.36
357.00	21731.09
358.00	21968.27
359.00	22186.72
360.00	22280.34
361.00	22742.21
362.00	23148.68
363.00	23706.51
364.00	24043.54
365.00	24150.43
366.00	24137.94
367.00	23990.49
368.00	23758.00
369.00	23324.22
370.00	22963.78
371.00	22711.78
372.00	22565.10
373.00	22143.03
374.00	21521.23
375.00	21114.75
376.00	20970.42
377.00	21104.61
378.00	21451.79
379.00	22015.08
380.00	22657.95
381.00	23268.83
382.00	23727.57
383.00	24084.89
384.00	24058.37
385.00	23773.60
386.00	23516.14
387.00	23578.56
388.00	24005.31
389.00	24655.20
390.00	25312.89
391.00	25766.96
392.00	26060.30
393.00	26318.54
394.00	26562.74
395.00	26823.32
396.00	26903.68
397.00	27230.57
398.00	27408.45
399.00	27645.63
400.00	27507.54
401.00	27428.74
402.00	27315.61
403.00	27442.78
404.00	27673.71
405.00	27835.99
406.00	28050.54
407.00	28144.94
408.00	27865.64
409.00	27715.84
410.00	27638.61
411.00	27999.05
412.00	27541.86
413.00	26795.23
414.00	26086.05
415.00	25777.10
416.00	25812.99
417.00	25863.70
418.00	26227.26
419.00	26718.78
420.00	27148.65
421.00	27674.49
422.00	27964.72
423.00	28429.71
424.00	28718.37
425.00	28949.31
426.00	28783.91
427.00	28449.21
428.00	28317.36
429.00	28320.48
430.00	28411.76
431.00	28293.18
432.00	28313.46
433.00	28208.92
434.00	28307.22
435.00	28327.50
436.00	28681.70
437.00	28853.34
438.00	29177.90
439.00	29543.80
440.00	30128.94
441.00	30519.81
442.00	30755.42
443.00	30569.74
444.00	30459.73
445.00	30255.32
446.00	30190.57
447.00	30118.01
448.00	30051.70
449.00	29749.77
450.00	29370.60
451.00	28911.86
452.00	28529.57
453.00	27974.08
454.00	27629.24
455.00	27598.04
456.00	27995.15
457.00	28376.66
458.00	28795.61
459.00	29090.52
460.00	29449.40
461.00	29607.00
462.00	29620.26
463.00	29365.14
464.00	29128.75
465.00	28973.49
466.00	28953.99
467.00	29276.98
468.00	29625.72
469.00	30245.96
470.00	30630.59
471.00	30984.01
472.00	30946.56
473.00	30900.53
474.00	31037.84
475.00	31156.43
476.00	31395.17
477.00	31626.88
478.00	31880.44
479.00	31976.40
480.00	31391.26
481.00	31012.88
482.00	30454.27
483.00	30207.73
484.00	30200.71
485.00	30342.70
486.00	30703.15
487.00	30856.84
488.00	30741.38
489.00	30886.49
490.00	30593.14
491.00	30614.99
492.00	30597.82
493.00	30817.83
494.00	31094.02
495.00	31106.50
496.00	31350.70
497.00	31708.02
498.00	31988.88
499.00	32102.79
500.00	31946.75
501.00	31965.48
502.00	32058.32
503.00	32227.62
504.00	32350.88
505.00	32464.01
506.00	32543.59
507.00	32762.04
508.00	32729.27
509.00	32737.85
510.00	32566.21
511.00	32540.47
512.00	32345.42
513.00	32232.30
514.00	32100.45
515.00	32104.35
516.00	31930.37
517.00	31555.88
518.00	31406.09
519.00	31138.49
520.00	31464.60
521.00	31463.82
522.00	31650.28
523.00	31776.67
524.00	31990.44
525.00	32300.17
526.00	31935.05
527.00	31618.30
528.00	31076.85
529.00	30707.05
530.00	30450.37
531.00	30390.30
532.00	30643.85
533.00	30923.94
534.00	31203.24
535.00	31487.23
536.00	31262.54
537.00	31153.31
538.00	31019.12
539.00	31407.65
540.00	31628.44
541.00	31736.88
542.00	31775.11
543.00	31701.00
544.00	31733.76
545.00	31653.40
546.00	31374.10
547.00	31140.83
548.00	30810.03
549.00	30944.22
550.00	30987.13
551.00	31083.09
552.00	31164.23
553.00	31234.45
554.00	31498.15
555.00	31949.09
556.00	32457.77
557.00	33153.69
558.00	33628.04
559.00	34077.42
560.00	34170.26
561.00	34022.03
562.00	33488.38
563.00	33005.45
564.00	32699.62
565.00	33024.18
566.00	33358.10
567.00	33413.49
568.00	33315.97
569.00	33292.56
570.00	33731.80
571.00	34244.38
572.00	34624.33
573.00	34725.75
574.00	34593.90
575.00	34592.34
576.00	34741.35
577.00	34663.33
578.00	34717.95
579.00	34494.82
580.00	34472.97
581.00	34352.04
582.00	34412.90
583.00	34313.03
584.00	34434.74
585.00	34845.12
586.00	35693.95
587.00	36114.47
588.00	36186.24
589.00	36536.54
590.00	37003.87
591.00	37665.46
592.00	37771.57
593.00	37902.64
594.00	37811.35
595.00	37696.67
596.00	37731.78
597.00	37821.50
598.00	38495.57
599.00	38970.70
600.00	39551.93
601.00	39564.42
602.00	39744.64
603.00	39690.80
604.00	39928.76
605.00	40182.32
606.00	40363.32
607.00	40429.63
608.00	40456.16
609.00	40872.00
610.00	41130.23
611.00	41415.78
612.00	41613.16
613.00	42143.69
614.00	42205.32
615.00	42425.33
616.00	42212.34
617.00	42341.85
618.00	42493.21
619.00	42820.10
620.00	43074.44
621.00	43135.29
622.00	43239.84
623.00	43532.40
624.00	43483.25
625.00	43242.96
626.00	42982.38
627.00	43091.60
628.00	43307.71
629.00	43736.81
630.00	44101.15
631.00	44111.30
632.00	43342.82
633.00	42447.96
634.00	41115.41
635.00	39450.51
636.00	37635.03
637.00	36948.48
638.00	37366.65
639.00	38632.10
640.00	39812.51
641.00	41016.33
642.00	41725.51
643.00	42574.34
644.00	43444.24
645.00	44281.38
646.00	45077.16
647.00	45660.73
648.00	46351.97
649.00	46727.24
650.00	46642.98
651.00	46419.06
652.00	46036.78
653.00	46036.78
654.00	46335.59
655.00	47327.97
656.00	48336.74
657.00	49322.89
658.00	49768.37
659.00	50196.69
660.00	50257.54
661.00	50088.24
662.00	49890.08
663.00	49691.13
664.00	49693.47
665.00	49629.50
666.00	49804.26
667.00	49694.25
668.00	49251.89
669.00	48372.63
670.00	47881.12
671.00	48012.97
672.00	48768.96
673.00	49550.70
674.00	50494.72
675.00	51094.67
676.00	51512.85
677.00	51363.84
678.00	51075.95
679.00	50886.37
680.00	50898.85
681.00	51313.90
682.00	51915.42
683.00	52471.69
684.00	52950.72
685.00	53348.61
686.00	53707.49
687.00	53759.76
688.00	53482.02
689.00	52986.61
690.00	52620.70
691.00	52478.71
692.00	52640.99
693.00	53034.98
694.00	53475.00
695.00	53827.64
696.00	53900.98
697.00	53958.71
698.00	53972.75
699.00	54090.56
700.00	54285.61
701.00	54450.22
702.00	54366.74
703.00	54004.74
704.00	53393.86
705.00	52892.21
706.00	52612.12
707.00	52767.38
708.00	53164.49
709.00	53710.61
710.00	54207.59
711.00	54514.20
712.00	54632.00
713.00	54630.44
714.00	54518.88
715.00	54270.00
716.00	53872.89
717.00	53657.56
718.00	53211.30
719.00	53189.45
720.00	53046.68
721.00	53137.18
722.00	52913.27
723.00	52780.64
724.00	52660.49
725.00	52599.64
726.00	52669.08
727.00	52980.37
728.00	53266.69
729.00	53608.41
730.00	53836.22
731.00	54199.01
732.00	54423.70
733.00	54551.65
734.00	54441.64
735.00	54129.57
736.00	53551.46
737.00	53072.43
738.00	52719.79
739.00	52868.02
740.00	53339.25
741.00	53967.29
742.00	54351.92
743.00	54432.28
744.00	54540.72
745.00	54732.65
746.00	55104.79
747.00	55511.27
748.00	55830.36
749.00	56030.08
750.00	56011.36
751.00	55838.94
752.00	55570.56
753.00	55270.97
754.00	55135.22
755.00	54932.37
756.00	54871.52
757.00	54795.06
758.00	54830.17
759.00	54587.53
760.00	54300.43
761.00	54207.59
762.00	54323.05
763.00	54679.60
764.00	54912.09
765.00	55329.48
766.00	55725.03
767.00	56148.67
768.00	56197.82
769.00	56078.46
770.00	55798.37
771.00	55572.12
772.00	55519.07
773.00	55406.72
774.00	55524.53
775.00	55394.24
776.00	55465.24
777.00	55540.13
778.00	55710.21
779.00	55952.07
780.00	56175.98
781.00	56568.41
782.00	56723.66
783.00	56662.81
784.00	56325.77
785.00	55901.36
786.00	55586.94
787.00	55421.55
788.00	55384.10
789.00	55370.05
790.00	55372.39
791.00	55488.64
792.00	55559.64
793.00	55379.42
794.00	55158.62
795.00	54866.84
796.00	54809.89
797.00	54747.47
798.00	54875.42
799.00	55042.38
800.00	55267.85
801.00	55378.64
802.00	55451.97
803.00	55505.80
804.00	55693.83
805.00	55997.32
806.00	56079.24
807.00	55813.98
808.00	55045.50
809.00	54013.32
810.00	52666.73
811.00	51385.68
812.00	50236.48
813.00	49656.81
814.00	50051.58
815.00	51325.61
816.00	52824.33
817.00	53664.58
818.00	53677.85
819.00	53181.65
820.00	52566.87
821.00	52272.74
822.00	52479.49
823.00	52978.81
824.00	53542.88
825.00	53996.16
826.00	54380.01
827.00	54793.50
828.00	55221.04
829.00	55563.54
830.00	55849.08
831.00	55764.04
832.00	55669.64
833.00	55277.21
834.00	55242.10
835.00	55240.54
836.00	55547.93
837.00	55753.12
838.00	55921.64
839.00	56042.57
840.00	56188.46
841.00	56343.72
842.00	56370.24
843.00	56164.28
844.00	55742.20
845.00	55271.75
846.00	55030.68
847.00	54930.03
848.00	55043.16
849.00	55259.27
850.00	55654.82
851.00	56061.29
852.00	56490.39
853.00	56768.91
854.00	56990.48
855.00	56973.32
856.00	56970.20
857.00	56852.39
858.00	56745.51
859.00	56601.18
860.00	56580.11
861.00	56458.40
862.00	56617.56
863.00	56634.72
864.00	56595.71
865.00	56012.92
866.00	55149.26
867.00	54184.96
868.00	53248.75
869.00	52525.52
870.00	52273.52
871.00	52447.50
872.00	52927.31
873.00	53715.29
874.00	54505.62
875.00	55146.14
876.00	55351.33
877.00	55406.72
878.00	55668.86
879.00	55940.36
880.00	56271.16
881.00	56552.02
882.00	56797.00
883.00	57020.91
884.00	56901.54
885.00	56555.92
886.00	56104.20
887.00	55806.17
888.00	55702.41
889.00	55752.34
890.00	56013.70
891.00	56276.62
892.00	56639.40
893.00	56706.50
894.00	56850.05
895.00	56807.92
896.00	56821.19
897.00	56753.31
898.00	56523.94
899.00	56332.01
900.00	55933.34
901.00	55509.71
902.00	54901.17
903.00	54360.50
904.00	53973.53
905.00	53939.99
906.00	54172.48
907.00	54699.88
908.00	55149.26
909.00	55624.39
910.00	55707.09
911.00	55625.95
912.00	55341.19
913.00	55281.11
914.00	55163.31
915.00	55214.80
916.00	55268.63
917.00	55473.82
918.00	55734.40
919.00	55920.86
920.00	56224.35
921.00	56452.16
922.00	56636.28
923.00	56510.67
924.00	56246.19
925.00	55829.58
926.00	55533.89
927.00	55032.24
928.00	54656.19
929.00	54309.79
930.00	54234.11
931.00	54446.32
932.00	54840.31
933.00	55213.24
934.00	55371.61
935.00	55360.69
936.00	55398.92
937.00	55440.27
938.00	55356.01
939.00	55261.61
940.00	55160.19
941.00	55054.08
942.00	54827.05
943.00	54583.63
944.00	54351.14
945.00	54223.97
946.00	54063.25
947.00	53804.23
948.00	53727.00
949.00	53479.68
950.00	53507.77
951.00	53249.53
952.00	53217.54
953.00	53248.75
954.00	53528.83
955.00	53844.80
956.00	54110.85
957.00	54288.73
958.00	54480.65
959.00	54574.27
960.00	54432.28
961.00	54190.42
962.00	54053.89
963.00	54032.05
964.00	54053.11
965.00	53929.84
966.00	53955.59
967.00	53926.72
968.00	54110.85
969.00	54277.02
970.00	54677.25
971.00	54951.88
972.00	55155.50
973.00	54971.38
974.00	54752.93
975.00	54603.92
976.00	54577.39
977.00	54617.96
978.00	54507.96
979.00	54448.66
980.00	54227.09
981.00	54324.61
982.00	54230.99
983.00	54303.55
984.00	54139.71
985.00	54074.96
986.00	54006.30
987.00	53883.03
988.00	53990.70
989.00	53973.53
990.00	54077.30
991.00	53755.08
992.00	53397.76
993.00	53045.12
994.00	53044.34
995.00	53311.94
996.00	53599.05
997.00	53990.70
998.00	54100.70
999.00	54129.57
1000.00	54177.16
1001.00	54241.92
1002.00	54266.88
1003.00	54011.76
1004.00	53887.71
1005.00	53792.53
1006.00	53823.74
1007.00	53784.73
1008.00	53760.55
1009.00	53637.28
1010.00	53526.49
1011.00	53287.76
1012.00	53219.10
1013.00	53075.55
1014.00	53315.84
1015.00	53340.81
1016.00	53613.09
1017.00	53787.07
1018.00	53986.80
1019.00	54100.70
1020.00	53897.08
1021.00	53717.64
1022.00	53423.51
1023.00	53140.30
1024.00	52800.93
1025.00	52677.66
1026.00	52840.71
1027.00	53191.01
1028.00	53410.24
1029.00	53368.12
1030.00	53396.98
1031.00	53563.16
1032.00	53808.92
1033.00	53911.90
1034.00	53807.36
1035.00	53787.85
1036.00	53885.37
1037.00	53918.92
1038.00	53826.08
1039.00	53556.92
1040.00	53358.75
1041.00	53171.51
1042.00	53050.58
1043.00	52854.76
1044.00	52798.58
1045.00	52645.67
1046.00	52598.08
1047.00	52234.52
1048.00	52066.78
1049.00	51810.10
1050.00	51985.64
1051.00	52061.32
1052.00	52245.44
1053.00	52336.72
1054.00	52392.11
1055.00	52388.99
1056.00	52195.51
1057.00	51811.66
1058.00	51387.24
1059.00	50924.60
1060.00	50732.67
1061.00	50567.27
1062.00	50709.27
1063.00	50872.32
1064.00	51107.94
1065.00	51177.37
1066.00	51141.49
1067.00	50947.22
1068.00	50894.95
1069.00	51109.50
1070.00	51628.32
1071.00	52147.14
1072.00	52384.31
1073.00	52445.16
1074.00	52217.35
1075.00	51781.23
1076.00	51250.71
1077.00	50971.41
1078.00	50890.27
1079.00	50944.88
1080.00	50927.72
1081.00	51047.08
1082.00	51207.80
1083.00	51325.61
1084.00	51515.97
1085.00	51551.08
1086.00	51585.41
1087.00	51436.39
1088.00	51297.52
1089.00	51197.66
1090.00	51047.08
1091.00	50949.56
1092.00	50869.20
1093.00	50862.18
1094.00	50957.36
1095.00	50945.66
1096.00	50863.74
1097.00	50721.75
1098.00	50546.99
1099.00	50393.29
1100.00	50051.58
1101.00	49659.93
1102.00	49348.64
1103.00	49283.10
1104.00	49267.50
1105.00	49470.34
1106.00	49475.80
1107.00	49653.68
1108.00	49768.37
1109.00	50095.27
1110.00	50375.35
1111.00	50374.57
1112.00	50422.16
1113.00	50405.00
1114.00	50330.10
1115.00	50057.82
1116.00	49734.82
1117.00	49327.57
1118.00	48850.88
1119.00	48378.09
1120.00	48195.53
1121.00	48224.40
1122.00	48389.80
1123.00	48563.00
1124.00	48747.12
1125.00	48820.45
1126.00	48723.71
1127.00	48603.56
1128.00	48374.19
1129.00	48150.28
1130.00	47699.34
1131.00	47374.78
1132.00	46883.27
1133.00	46394.88
1134.00	46124.94
1135.00	46134.30
1136.00	46502.54
1137.00	46728.80
1138.00	47183.64
1139.00	47559.69
1140.00	47869.42
1141.00	48114.39
1142.00	48328.16
1143.00	48509.16
1144.00	48425.68
1145.00	48295.39
1146.00	48167.44
1147.00	48024.67
1148.00	47960.70
1149.00	47840.55
1150.00	47814.02
1151.00	47757.07
1152.00	47717.28
1153.00	47666.57
1154.00	47455.14
1155.00	47200.02
1156.00	46944.90
1157.00	46686.67
1158.00	46351.19
1159.00	45989.19
1160.00	45859.68
1161.00	45804.28
1162.00	45769.96
1163.00	45706.76
1164.00	45616.26
1165.00	45763.71
1166.00	45666.97
1167.00	45895.56
1168.00	45939.25
1169.00	46121.04
1170.00	46097.63
1171.00	46135.08
1172.00	46036.00
1173.00	45862.80
1174.00	45703.64
1175.00	45555.41
1176.00	45404.05
1177.00	45001.48
1178.00	44563.80
1179.00	44160.45
1180.00	44200.24
1181.00	44187.75
1182.00	44573.94
1183.00	44598.13
1184.00	44917.22
1185.00	45062.33
1186.00	45221.49
1187.00	45406.39
1188.00	45369.72
1189.00	45535.12
1190.00	45532.00
1191.00	45630.30
1192.00	45408.73
1193.00	45393.13
1194.00	45266.74
1195.00	45393.13
1196.00	45472.71
1197.00	45459.44
1198.00	45432.92
1199.00	45311.21
1200.00	45417.32
1201.00	45694.28
1202.00	45770.74
1203.00	45841.73
1204.00	45697.40
1205.00	45801.94
1206.00	45695.84
1207.00	45766.84
1208.00	45681.80
1209.00	45847.19
1210.00	45889.32
1211.00	45730.95
1212.00	45715.34
1213.00	45628.74
1214.00	45743.43
1215.00	45582.71
1216.00	45448.52
1217.00	45469.59
1218.00	45413.41
1219.00	45348.66
1220.00	45123.97
1221.00	44710.47
1222.00	44345.35
1223.00	44063.71
1224.00	43937.32
1225.00	43620.56
1226.00	43426.30
1227.00	43421.62
1228.00	43367.01
1229.00	43398.99
1230.00	43449.70
1231.00	43796.10
1232.00	43901.43
1233.00	43904.55
1234.00	43753.97
1235.00	43664.25
1236.00	43809.37
1237.00	43825.75
1238.00	43784.40
1239.00	43520.70
1240.00	43210.97
1241.00	42721.02
1242.00	41926.80
1243.00	40909.44
1244.00	39690.80
1245.00	38449.54
1246.00	37632.69
1247.00	37046.00
1248.00	36811.17
1249.00	36982.80
1250.00	37384.60
1251.00	38137.47
1252.00	38826.37
1253.00	39703.29
1254.00	40513.89
1255.00	41039.73
1256.00	41533.59
1257.00	41922.12
1258.00	42052.41
1259.00	41754.38
1260.00	41355.71
1261.00	40984.34
1262.00	41027.25
1263.00	41104.49
1264.00	41285.49
1265.00	41245.70
1266.00	41025.69
1267.00	41150.52
1268.00	41219.95
1269.00	41332.30
1270.00	41060.80
1271.00	40847.81
1272.00	40865.75
1273.00	41145.06
1274.00	41518.76
1275.00	41530.47
1276.00	41209.81
1277.00	40637.94
1278.00	40290.76
1279.00	40048.13
1280.00	39734.49
1281.00	39657.26
1282.00	39515.26
1283.00	39845.28
1284.00	39661.16
1285.00	39988.83
1286.00	40081.67
1287.00	40502.97
1288.00	40573.19
1289.00	40694.11
1290.00	40765.11
1291.00	40715.18
1292.00	40825.18
1293.00	40638.72
1294.00	40642.62
1295.00	40409.35
1296.00	40603.61
1297.00	40497.51
1298.00	40427.29
1299.00	40182.32
1300.00	40103.52
1301.00	40151.89
1302.00	40034.08
1303.00	39907.69
1304.00	39708.75
1305.00	39664.28
1306.00	39659.60
1307.00	39574.56
1308.00	39583.92
1309.00	39647.89
1310.00	39780.53
1311.00	39806.27
1312.00	39950.60
1313.00	39944.36
1314.00	39793.01
1315.00	39734.49
1316.00	39828.12
1317.00	39966.99
1318.00	39757.12
1319.00	39554.27
1320.00	39300.72
1321.00	39229.72
1322.00	39193.05
1323.00	39198.51
1324.00	39124.40
1325.00	38926.23
1326.00	38912.19
1327.00	38820.91
1328.00	38693.74
1329.00	38433.16
1330.00	38445.64
1331.00	38673.45
1332.00	38917.65
1333.00	38998.01
1334.00	39122.05
1335.00	39168.87
1336.00	39319.44
1337.00	39386.53
1338.00	39491.08
1339.00	39495.76
1340.00	39514.48
1341.00	39521.51
1342.00	39347.53
1343.00	39209.43
1344.00	39105.67
1345.00	39139.22
1346.00	39092.41
1347.00	39093.97
1348.00	38883.32
1349.00	38795.94
1350.00	38547.84
1351.00	38663.31
1352.00	38423.01
1353.00	38629.76
1354.00	38586.07
1355.00	38629.76
1356.00	38398.83
1357.00	38380.10
1358.00	38371.52
1359.00	38421.45
1360.00	38401.95
1361.00	38405.85
1362.00	38470.61
1363.00	38356.70
1364.00	38281.02
1365.00	38075.05
1366.00	37878.45
1367.00	37623.33
1368.00	37378.36
1369.00	37287.85
1370.00	37273.03
1371.00	37268.35
1372.00	37241.04
1373.00	37123.24
1374.00	37176.29
1375.00	37171.61
1376.00	37258.99
1377.00	37068.62
1378.00	36946.92
1379.00	36802.58
1380.00	36598.96
1381.00	36364.90
1382.00	36202.63
1383.00	36144.89
1384.00	36139.43
1385.00	36231.49
1386.00	36323.55
1387.00	36424.98
1388.00	36382.07
1389.00	36495.97
1390.00	36573.99
1391.00	36580.23
1392.00	36273.62
1393.00	36022.40
1394.00	35648.70
1395.00	35674.45
1396.00	35665.08
1397.00	35722.04
1398.00	35585.50
1399.00	35515.29
1400.00	35633.88
1401.00	35500.47
1402.00	35219.60
1403.00	34829.51
1404.00	34596.24
1405.00	34416.80
1406.00	34453.47
1407.00	34561.91
1408.00	34898.95
1409.00	35090.09
1410.00	35351.45
1411.00	35299.96
1412.00	35253.15
1413.00	35049.52
1414.00	34949.66
1415.00	34561.13
1416.00	34487.79
1417.00	34219.41
1418.00	34025.15
1419.00	33529.73
1420.00	33239.51
1421.00	33145.89
1422.00	33164.61
1423.00	33133.40
1424.00	33205.18
1425.00	33297.24
1426.00	33463.42
1427.00	33502.43
1428.00	33763.79
1429.00	33939.33
1430.00	34110.19
1431.00	34181.96
1432.00	34370.77
1433.00	34465.95
1434.00	34394.95
1435.00	34210.05
1436.00	34101.61
1437.00	33862.87
1438.00	33727.90
1439.00	33605.41
1440.00	33521.15
1441.00	33396.32
1442.00	33464.98
1443.00	33648.32
1444.00	33756.77
1445.00	33631.16
1446.00	33713.08
1447.00	33738.82
1448.00	33840.25
1449.00	33670.17
1450.00	33659.24
1451.00	33617.11
1452.00	33457.96
1453.00	33228.59
1454.00	32968.01
1455.00	32845.52
1456.00	32621.61
1457.00	32489.76
1458.00	32626.29
1459.00	32630.19
1460.00	32698.84
1461.00	32591.18
1462.00	32528.77
1463.00	32328.26
1464.00	32004.49
1465.00	31867.95
1466.00	31755.61
1467.00	31630.78
1468.00	31537.94
1469.00	31583.19
1470.00	31683.83
1471.00	31804.76
1472.00	31514.53
1473.00	31378.00
1474.00	31145.51
1475.00	31172.82
1476.00	31062.81
1477.00	30966.07
1478.00	30916.92
1479.00	30767.90
1480.00	30557.25
1481.00	30380.15
1482.00	30386.40
1483.00	30314.62
1484.00	30378.59
1485.00	30354.41
1486.00	30571.30
1487.00	30579.88
1488.00	30657.90
1489.00	30608.75
1490.00	30550.23
1491.00	30402.00
1492.00	30284.97
1493.00	29983.04
1494.00	29430.68
1495.00	28814.34
1496.00	28112.17
1497.00	27732.23
1498.00	27597.26
1499.00	27885.14
1500.00	28311.12
1501.00	28603.69
1502.00	28713.69
1503.00	28748.80
1504.00	28864.27
1505.00	28946.19
1506.00	28858.81
1507.00	28607.59
1508.00	28459.35
1509.00	28319.70
1510.00	28226.86
1511.00	28025.57
1512.00	27973.30
1513.00	28061.46
1514.00	28296.30
1515.00	28518.65
1516.00	28583.40
1517.00	28652.06
1518.00	28585.74
1519.00	28473.40
1520.00	28183.17
1521.00	27943.66
1522.00	27732.23
1523.00	27742.37
1524.00	27775.92
1525.00	27929.61
1526.00	28101.25
1527.00	28115.30
1528.00	28294.74
1529.00	28336.09
1530.00	28560.00
1531.00	28586.52
1532.00	28581.84
1533.00	28477.30
1534.00	28361.05
1535.00	28169.13
1536.00	28122.32
1537.00	27979.54
1538.00	27908.55
1539.00	27892.16
1540.00	27936.63
1541.00	28129.34
1542.00	28121.54
1543.00	28277.57
1544.00	28233.10
1545.00	28233.10
1546.00	28168.35
1547.00	28144.16
1548.00	28106.71
1549.00	27985.01
1550.00	27769.68
1551.00	27583.21
1552.00	27460.73
1553.00	27499.73
1554.00	27587.89
1555.00	27558.25
1556.00	27814.15
1557.00	27875.00
1558.00	28082.53
1559.00	27925.71
1560.00	27972.52
1561.00	27975.64
1562.00	28162.11
1563.00	28122.32
1564.00	28048.98
1565.00	27937.41
1566.00	27980.32
1567.00	28108.27
1568.00	28048.98
1569.00	27972.52
1570.00	27817.27
1571.00	27689.32
1572.00	27494.27
1573.00	27360.08
1574.00	27267.24
1575.00	27159.58
1576.00	26950.49
1577.00	26817.86
1578.00	26764.81
1579.00	26730.48
1580.00	26703.95
1581.00	26632.96
1582.00	26588.49
1583.00	26497.98
1584.00	26582.24
1585.00	26561.18
1586.00	26536.99
1587.00	26317.76
1588.00	26345.85
1589.00	26294.36
1590.00	26223.36
1591.00	26036.12
1592.00	25973.70
1593.00	26096.19
1594.00	26043.14
1595.00	26038.46
1596.00	26013.49
1597.00	26176.55
1598.00	26203.86
1599.00	26195.28
1600.00	26054.06
1601.00	25868.38
1602.00	25805.19
1603.00	25675.68
1604.00	25718.59
1605.00	25634.33
1606.00	25733.41
1607.00	25829.37
1608.00	25899.59
1609.00	25892.57
1610.00	25690.50
1611.00	25662.41
1612.00	25491.55
1613.00	25518.08
1614.00	25230.98
1615.00	25276.23
1616.00	25145.16
1617.00	25280.91
1618.00	25046.85
1619.00	24948.55
1620.00	24764.43
1621.00	24746.48
1622.00	24742.58
1623.00	24689.53
1624.00	24687.97
1625.00	24613.07
1626.00	24494.49
1627.00	24348.59
1628.00	24244.83
1629.00	24183.98
1630.00	24162.91
1631.00	24083.33
1632.00	24077.87
1633.00	24046.66
1634.00	24047.44
1635.00	23997.51
1636.00	24064.61
1637.00	24106.74
1638.00	24134.04
1639.00	23906.23
1640.00	23607.42
1641.00	23204.07
1642.00	22923.99
1643.00	22689.15
1644.00	22625.96
1645.00	22765.61
1646.00	23106.55
1647.00	23438.90
1648.00	23815.73
1649.00	24026.38
1650.00	24304.12
1651.00	24348.59
1652.00	24403.99
1653.00	24325.19
1654.00	24098.94
1655.00	23800.91
1656.00	23406.14
1657.00	23197.83
1658.00	23124.49
1659.00	23073.00
1660.00	23141.66
1661.00	23122.93
1662.00	23319.54
1663.00	23486.50
1664.00	23701.04
1665.00	23668.28
1666.00	23613.66
1667.00	23540.33
1668.00	23491.18
1669.00	23447.49
1670.00	23413.16
1671.00	23523.94
1672.00	23463.09
1673.00	23385.85
1674.00	23270.39
1675.00	23221.24
1676.00	23119.81
1677.00	22899.02
1678.00	22551.06
1679.00	22278.00
1680.00	22128.98
1681.00	22210.90
1682.00	22135.23
1683.00	22031.46
1684.00	21571.16
1685.00	21202.91
1686.00	20418.05
1687.00	19694.83
1688.00	18787.48
1689.00	18237.45
1690.00	17969.07
1691.00	18095.46
1692.00	18585.41
1693.00	19002.03
1694.00	19587.94
1695.00	20015.48
1696.00	20538.98
1697.00	20877.58
1698.00	21245.82
1699.00	21425.26
1700.00	21666.34
1701.00	21919.90
1702.00	22175.80
1703.00	22324.81
1704.00	22270.20
1705.00	22243.67
1706.00	22157.07
1707.00	22026.00
1708.00	21976.07
1709.00	21853.58
1710.00	21727.97
1711.00	21643.71
1712.00	21618.75
1713.00	21637.47
1714.00	21674.14
1715.00	21730.31
1716.00	21851.24
1717.00	21865.28
1718.00	21904.29
1719.00	21884.79
1720.00	21916.00
1721.00	21779.46
1722.00	21742.02
1723.00	21759.18
1724.00	21782.59
1725.00	21703.79
1726.00	21600.80
1727.00	21665.56
1728.00	21724.85
1729.00	21701.45
1730.00	21541.51
1731.00	21499.38
1732.00	21522.01
1733.00	21504.84
1734.00	21450.23
1735.00	21270.79
1736.00	21203.69
1737.00	20981.34
1738.00	20901.76
1739.00	20847.15
1740.00	20805.02
1741.00	20863.54
1742.00	20766.01
1743.00	20744.95
1744.00	20655.23
1745.00	20654.45
1746.00	20622.46
1747.00	20536.64
1748.00	20431.32
1749.00	20438.34
1750.00	20548.34
1751.00	20650.55
1752.00	20617.78
1753.00	20464.08
1754.00	20396.21
1755.00	20436.00
1756.00	20407.91
1757.00	20336.13
1758.00	20167.62
1759.00	20102.86
1760.00	20073.99
1761.00	20109.88
1762.00	20026.40
1763.00	19931.22
1764.00	19828.24
1765.00	19912.50
1766.00	19919.52
1767.00	19868.81
1768.00	19705.75
1769.00	19489.64
1770.00	19519.29
1771.00	19463.90
1772.00	19574.68
1773.00	19548.15
1774.00	19616.81
1775.00	19593.40
1776.00	19534.89
1777.00	19483.40
1778.00	19456.87
1779.00	19431.91
1780.00	19362.47
1781.00	19293.82
1782.00	19164.31
1783.00	19043.38
1784.00	19062.88
1785.00	19012.17
1786.00	19058.20
1787.00	18903.73
1788.00	18832.73
1789.00	18679.04
1790.00	18680.60
1791.00	18664.21
1792.00	18608.04
1793.00	18523.78
1794.00	18553.43
1795.00	18482.43
1796.00	18430.16
1797.00	18303.77
1798.00	18247.60
1799.00	18177.38
1800.00	18000.28
1801.00	17997.94
1802.00	17994.04
1803.00	17980.00
1804.00	17870.77
1805.00	17809.92
1806.00	17887.93
1807.00	18020.56
1808.00	17977.65
1809.00	17898.86
1810.00	17799.77
1811.00	17793.53
1812.00	17756.08
1813.00	17647.64
1814.00	17632.82
1815.00	17727.22
1816.00	17584.44
1817.00	17458.84
1818.00	17368.34
1819.00	17483.02
1820.00	17357.41
1821.00	17265.35
1822.00	17214.64
1823.00	17130.38
1824.00	17099.95
1825.00	17066.41
1826.00	17121.80
1827.00	17203.72
1828.00	17252.87
1829.00	17184.21
1830.00	16848.74
1831.00	16676.32
1832.00	16646.67
1833.00	16706.74
1834.00	16560.85
1835.00	16512.48
1836.00	16398.57
1837.00	16402.47
1838.00	16310.41
1839.00	16353.32
1840.00	16367.37
1841.00	16406.38
1842.00	16362.69
1843.00	16350.20
1844.00	16261.26
1845.00	16123.17
1846.00	15908.62
1847.00	15870.39
1848.00	15771.31
1849.00	15720.60
1850.00	15708.12
1851.00	15653.50
1852.00	15598.89
1853.00	15507.61
1854.00	15425.69
1855.00	15374.20
1856.00	15295.40
1857.00	15301.64
1858.00	15340.65
1859.00	15280.58
1860.00	15293.84
1861.00	15209.58
1862.00	15164.33
1863.00	15088.65
1864.00	14917.01
1865.00	14874.88
1866.00	14734.45
1867.00	14798.43
1868.00	14684.52
1869.00	14730.55
1870.00	14699.34
1871.00	14708.71
1872.00	14665.80
1873.00	14551.89
1874.00	14455.15
1875.00	14415.36
1876.00	14426.28
1877.00	14462.95
1878.00	14368.55
1879.00	14355.29
1880.00	14283.51
1881.00	14267.91
1882.00	14182.09
1883.00	14071.30
1884.00	13909.02
1885.00	13766.25
1886.00	13622.70
1887.00	13490.85
1888.00	13325.45
1889.00	13344.17
1890.00	13387.86
1891.00	13423.75
1892.00	13344.95
1893.00	13359.00
1894.00	13402.69
1895.00	13352.76
1896.00	13256.01
1897.00	13163.95
1898.00	13103.88
1899.00	13031.32
1900.00	12989.97
1901.00	12981.39
1902.00	12872.95
1903.00	12670.10
1904.00	12237.10
1905.00	11608.28
1906.00	10720.43
1907.00	9880.96
1908.00	9165.54
1909.00	8642.82
1910.00	8134.92
1911.00	7841.57
1912.00	7789.30
1913.00	8160.67
1914.00	8573.38
1915.00	9057.87
1916.00	9462.01
1917.00	9732.73
1918.00	9877.84
1919.00	9917.63
1920.00	9945.72
1921.00	9867.70
1922.00	9763.93
1923.00	9677.34
1924.00	9528.32
1925.00	9434.70
1926.00	9348.10
1927.00	9422.22
1928.00	9431.58
1929.00	9512.72
1930.00	9599.32
1931.00	9676.55
1932.00	9692.94
1933.00	9820.11
1934.00	9885.64
1935.00	9988.63
1936.00	9929.33
1937.00	10007.35
1938.00	10129.84
1939.00	10242.96
1940.00	10221.90
1941.00	10132.96
1942.00	10061.18
1943.00	10089.27
1944.00	10171.97
1945.00	10159.49
1946.00	10160.27
1947.00	10041.68
1948.00	10061.18
1949.00	10011.25
1950.00	10053.38
1951.00	9944.94
1952.00	9863.02
1953.00	9789.68
1954.00	9775.64
1955.00	9698.40
1956.00	9668.75
1957.00	9562.65
1958.00	9540.80
1959.00	9429.24
1960.00	9428.46
1961.00	9367.60
1962.00	9253.70
1963.00	9253.70
1964.00	9256.82
1965.00	9263.06
1966.00	9180.36
1967.00	9146.03
1968.00	9156.18
1969.00	9189.72
1970.00	9164.76
1971.00	9163.20
1972.00	9099.22
1973.00	9068.80
1974.00	9038.37
1975.00	9003.26
1976.00	8968.93
1977.00	9047.73
1978.00	9107.02
1979.00	9125.75
1980.00	9005.60
1981.00	9049.29
1982.00	9092.20
1983.00	9178.02
1984.00	9070.36
1985.00	8964.25
1986.00	8911.20
1987.00	8841.76
1988.00	8819.14
1989.00	8695.87
1990.00	8666.22
1991.00	8521.11
1992.00	8428.27
1993.00	8389.26
1994.00	8397.84
1995.00	8360.39
1996.00	8219.96
1997.00	8109.18
1998.00	8073.29
1999.00	7987.47
2000.00	8004.63
2001.00	7991.37
2002.00	8088.89
2003.00	7996.83
2004.00	7866.54
2005.00	7768.24
2006.00	7701.14
2007.00	7667.60
2008.00	7646.53
2009.00	7659.79
2010.00	7620.78
2011.00	7577.87
2012.00	7573.97
2013.00	7595.82
2014.00	7550.57
2015.00	7495.18
2016.00	7460.85
2017.00	7380.49
2018.00	7322.76
2019.00	7305.59
2020.00	7311.83
2021.00	7329.78
2022.00	7282.19
2023.00	7187.79
2024.00	7129.27
2025.00	7012.24
2026.00	7030.19
2027.00	7024.73
2028.00	7112.89
2029.00	7166.72
2030.00	7187.79
2031.00	7204.95
2032.00	7155.02
2033.00	7130.83
2034.00	7079.34
2035.00	7045.79
2036.00	6930.33
2037.00	6876.49
2038.00	6876.49
2039.00	6907.70
2040.00	6921.74
2041.00	6867.13
2042.00	6905.36
2043.00	6839.05
2044.00	6840.61
2045.00	6787.55
2046.00	6734.50
2047.00	6586.27
>>>>>End Processed Spectral Data<<<<<
