SpectraSuite Data File
++++++++++++++++++++++++++++++++++++
Date: Thu Nov 16 13:55:15 EST 2017
User: cheriyan
Dark Spectrum Present: No
Reference Spectrum Present: No
Number of Sampled Component Spectra: 1
Spectrometers: USB2+H05261
Integration Time (usec): 100000 (USB2+H05261)
Spectra Averaged: 1 (USB2+H05261)
Boxcar Smoothing: 1 (USB2+H05261)
Correct for Electrical Dark: No (USB2+H05261)
Strobe/Lamp Enabled: No (USB2+H05261)
Correct for Detector Non-linearity: No (USB2+H05261)
Correct for Stray Light: No (USB2+H05261)
Number of Pixels in Processed Spectrum: 2048
>>>>>Begin Processed Spectral Data<<<<<
0.00	355.76
1.00	355.76
2.00	325.33
3.00	284.77
4.00	250.44
5.00	234.05
6.00	236.39
7.00	244.20
8.00	235.61
9.00	235.61
10.00	220.01
11.00	231.71
12.00	215.33
13.00	224.69
14.00	205.19
15.00	227.81
16.00	243.42
17.00	272.28
18.00	281.64
19.00	287.11
20.00	291.01
21.00	286.33
22.00	293.35
23.00	313.63
24.00	340.16
25.00	323.77
26.00	315.97
27.00	316.75
28.00	344.84
29.00	374.49
30.00	380.73
31.00	348.74
32.00	356.54
33.00	351.08
34.00	400.23
35.00	379.95
36.00	402.57
37.00	391.65
38.00	399.45
39.00	390.09
40.00	402.57
41.00	437.68
42.00	456.40
43.00	455.62
44.00	418.18
45.00	397.11
46.00	408.03
47.00	451.72
48.00	461.09
49.00	450.94
50.00	449.38
51.00	463.43
52.00	467.33
53.00	453.28
54.00	425.98
55.00	394.77
56.00	402.57
57.00	407.25
58.00	439.24
59.00	400.23
60.00	408.81
61.00	408.81
62.00	429.10
63.00	415.06
64.00	383.07
65.00	378.39
66.00	398.67
67.00	411.93
68.00	407.25
69.00	389.31
70.00	386.19
71.00	381.51
72.00	381.51
73.00	394.77
74.00	414.27
75.00	435.34
76.00	407.25
77.00	418.96
78.00	417.40
79.00	429.88
80.00	419.74
81.00	406.47
82.00	418.18
83.00	404.91
84.00	401.79
85.00	401.79
86.00	378.39
87.00	389.31
88.00	380.73
89.00	398.67
90.00	387.75
91.00	412.71
92.00	415.06
93.00	415.06
94.00	399.45
95.00	401.79
96.00	388.53
97.00	374.49
98.00	376.05
99.00	393.21
100.00	389.31
101.00	386.97
102.00	397.11
103.00	413.49
104.00	414.27
105.00	406.47
106.00	429.88
107.00	440.02
108.00	443.92
109.00	433.00
110.00	411.93
111.00	411.15
112.00	387.75
113.00	393.99
114.00	381.51
115.00	371.36
116.00	408.81
117.00	434.56
118.00	457.18
119.00	412.71
120.00	401.01
121.00	383.07
122.00	411.15
123.00	411.93
124.00	428.32
125.00	422.86
126.00	395.55
127.00	385.41
128.00	369.02
129.00	396.33
130.00	399.45
131.00	418.18
132.00	426.76
133.00	425.20
134.00	417.40
135.00	424.42
136.00	439.24
137.00	429.10
138.00	424.42
139.00	426.76
140.00	424.42
141.00	411.15
142.00	400.23
143.00	425.20
144.00	415.06
145.00	448.60
146.00	460.31
147.00	500.87
148.00	489.95
149.00	471.23
150.00	451.72
151.00	420.52
152.00	391.65
153.00	391.65
154.00	406.47
155.00	426.76
156.00	415.06
157.00	418.96
158.00	435.34
159.00	428.32
160.00	433.00
161.00	429.88
162.00	479.81
163.00	454.06
164.00	422.86
165.00	387.75
166.00	399.45
167.00	426.76
168.00	412.71
169.00	408.81
170.00	409.59
171.00	390.09
172.00	396.33
173.00	377.61
174.00	408.81
175.00	411.15
176.00	431.44
177.00	399.45
178.00	398.67
179.00	375.27
180.00	404.13
181.00	383.07
182.00	412.71
183.00	429.10
184.00	441.58
185.00	431.44
186.00	401.79
187.00	377.61
188.00	366.68
189.00	373.71
190.00	407.25
191.00	414.27
192.00	409.59
193.00	433.78
194.00	442.36
195.00	515.70
196.00	537.54
197.00	560.17
198.00	509.46
199.00	454.84
200.00	438.46
201.00	446.26
202.00	443.92
203.00	422.08
204.00	404.91
205.00	414.27
206.00	415.06
207.00	422.86
208.00	407.25
209.00	418.18
210.00	409.59
211.00	438.46
212.00	437.68
213.00	419.74
214.00	382.29
215.00	362.78
216.00	378.39
217.00	409.59
218.00	437.68
219.00	440.80
220.00	437.68
221.00	428.32
222.00	424.42
223.00	432.22
224.00	415.06
225.00	424.42
226.00	410.37
227.00	415.84
228.00	411.93
229.00	408.81
230.00	393.99
231.00	378.39
232.00	386.19
233.00	422.08
234.00	427.54
235.00	415.06
236.00	383.85
237.00	386.97
238.00	376.05
239.00	373.71
240.00	379.17
241.00	404.13
242.00	429.10
243.00	415.06
244.00	414.27
245.00	407.25
246.00	399.45
247.00	415.06
248.00	404.13
249.00	418.96
250.00	394.77
251.00	401.01
252.00	393.21
253.00	402.57
254.00	437.68
255.00	466.55
256.00	468.89
257.00	436.12
258.00	438.46
259.00	438.46
260.00	447.04
261.00	431.44
262.00	430.66
263.00	425.98
264.00	409.59
265.00	411.93
266.00	438.46
267.00	492.29
268.00	522.72
269.00	525.84
270.00	504.78
271.00	538.32
272.00	574.21
273.00	601.52
274.00	612.44
275.00	592.94
276.00	592.16
277.00	550.81
278.00	526.62
279.00	530.52
280.00	529.74
281.00	506.34
282.00	450.94
283.00	395.55
284.00	405.69
285.00	386.19
286.00	396.33
287.00	401.79
288.00	423.64
289.00	413.49
290.00	392.43
291.00	406.47
292.00	427.54
293.00	440.02
294.00	425.98
295.00	411.93
296.00	413.49
297.00	397.89
298.00	415.06
299.00	408.81
300.00	408.03
301.00	406.47
302.00	417.40
303.00	437.68
304.00	457.96
305.00	472.01
306.00	507.90
307.00	562.51
308.00	635.07
309.00	678.76
310.00	664.71
311.00	638.19
312.00	591.38
313.00	543.78
314.00	475.13
315.00	449.38
316.00	447.04
317.00	447.82
318.00	456.40
319.00	425.20
320.00	418.18
321.00	397.89
322.00	382.29
323.00	361.22
324.00	354.98
325.00	391.65
326.00	422.08
327.00	442.36
328.00	439.24
329.00	430.66
330.00	402.57
331.00	409.59
332.00	411.15
333.00	417.40
334.00	410.37
335.00	427.54
336.00	451.72
337.00	445.48
338.00	444.70
339.00	427.54
340.00	442.36
341.00	427.54
342.00	447.04
343.00	429.10
344.00	450.16
345.00	477.47
346.00	568.75
347.00	661.59
348.00	737.27
349.00	754.43
350.00	721.67
351.00	645.99
352.00	583.57
353.00	560.95
354.00	569.53
355.00	567.97
356.00	519.60
357.00	460.31
358.00	434.56
359.00	429.10
360.00	427.54
361.00	428.32
362.00	436.12
363.00	448.60
364.00	423.64
365.00	420.52
366.00	420.52
367.00	433.00
368.00	429.10
369.00	436.12
370.00	437.68
371.00	445.48
372.00	420.52
373.00	435.34
374.00	422.86
375.00	435.34
376.00	428.32
377.00	443.14
378.00	431.44
379.00	428.32
380.00	414.27
381.00	420.52
382.00	401.79
383.00	401.79
384.00	401.79
385.00	411.15
386.00	412.71
387.00	418.18
388.00	417.40
389.00	418.18
390.00	421.30
391.00	426.76
392.00	423.64
393.00	445.48
394.00	465.77
395.00	482.93
396.00	476.69
397.00	448.60
398.00	441.58
399.00	419.74
400.00	422.08
401.00	425.98
402.00	428.32
403.00	429.10
404.00	418.96
405.00	415.84
406.00	410.37
407.00	418.18
408.00	404.91
409.00	411.93
410.00	404.13
411.00	415.84
412.00	404.91
413.00	418.18
414.00	408.81
415.00	425.98
416.00	401.01
417.00	413.49
418.00	402.57
419.00	411.15
420.00	427.54
421.00	443.14
422.00	416.62
423.00	390.87
424.00	369.02
425.00	378.39
426.00	378.39
427.00	359.66
428.00	391.65
429.00	433.00
430.00	467.33
431.00	436.90
432.00	404.13
433.00	400.23
434.00	406.47
435.00	394.77
436.00	379.95
437.00	381.51
438.00	383.85
439.00	383.85
440.00	395.55
441.00	417.40
442.00	441.58
443.00	460.31
444.00	452.50
445.00	436.90
446.00	440.80
447.00	453.28
448.00	462.65
449.00	436.12
450.00	436.90
451.00	451.72
452.00	471.23
453.00	464.99
454.00	458.74
455.00	437.68
456.00	448.60
457.00	433.78
458.00	433.78
459.00	437.68
460.00	451.72
461.00	447.82
462.00	414.27
463.00	412.71
464.00	415.84
465.00	436.12
466.00	425.20
467.00	417.40
468.00	433.00
469.00	428.32
470.00	422.08
471.00	397.89
472.00	397.89
473.00	393.21
474.00	379.17
475.00	357.32
476.00	383.85
477.00	380.73
478.00	408.81
479.00	412.71
480.00	423.64
481.00	441.58
482.00	419.74
483.00	400.23
484.00	385.41
485.00	407.25
486.00	439.24
487.00	390.87
488.00	384.63
489.00	399.45
490.00	412.71
491.00	403.35
492.00	409.59
493.00	457.18
494.00	486.05
495.00	436.12
496.00	412.71
497.00	374.49
498.00	401.79
499.00	423.64
500.00	456.40
501.00	431.44
502.00	418.18
503.00	409.59
504.00	440.80
505.00	446.26
506.00	456.40
507.00	444.70
508.00	444.70
509.00	416.62
510.00	422.86
511.00	407.25
512.00	399.45
513.00	387.75
514.00	401.79
515.00	420.52
516.00	435.34
517.00	435.34
518.00	429.10
519.00	420.52
520.00	418.18
521.00	418.18
522.00	436.90
523.00	405.69
524.00	404.91
525.00	385.41
526.00	409.59
527.00	419.74
528.00	403.35
529.00	401.01
530.00	393.99
531.00	425.98
532.00	432.22
533.00	429.88
534.00	447.04
535.00	458.75
536.00	449.38
537.00	417.40
538.00	393.21
539.00	409.59
540.00	393.21
541.00	396.33
542.00	382.29
543.00	386.19
544.00	407.25
545.00	433.78
546.00	461.09
547.00	482.93
548.00	482.93
549.00	485.27
550.00	458.74
551.00	467.33
552.00	436.90
553.00	448.60
554.00	408.81
555.00	429.10
556.00	405.69
557.00	443.92
558.00	425.98
559.00	437.68
560.00	395.55
561.00	413.49
562.00	390.09
563.00	387.75
564.00	388.53
565.00	424.42
566.00	463.43
567.00	467.33
568.00	454.84
569.00	421.30
570.00	397.11
571.00	389.31
572.00	426.76
573.00	441.58
574.00	452.50
575.00	437.68
576.00	465.77
577.00	450.94
578.00	433.00
579.00	379.17
580.00	382.29
581.00	394.77
582.00	414.27
583.00	417.40
584.00	396.33
585.00	379.17
586.00	392.43
587.00	414.27
588.00	438.46
589.00	426.76
590.00	429.88
591.00	455.62
592.00	480.59
593.00	497.75
594.00	471.23
595.00	454.06
596.00	433.78
597.00	437.68
598.00	429.10
599.00	417.40
600.00	428.32
601.00	411.15
602.00	403.35
603.00	393.21
604.00	428.32
605.00	445.48
606.00	433.78
607.00	416.62
608.00	443.92
609.00	458.75
610.00	450.94
611.00	422.86
612.00	401.01
613.00	399.45
614.00	408.81
615.00	391.65
616.00	408.03
617.00	408.81
618.00	434.56
619.00	424.42
620.00	413.49
621.00	418.96
622.00	418.96
623.00	413.49
624.00	415.06
625.00	422.86
626.00	433.00
627.00	422.86
628.00	452.50
629.00	474.35
630.00	470.45
631.00	443.14
632.00	420.52
633.00	439.24
634.00	446.26
635.00	435.34
636.00	429.88
637.00	399.45
638.00	396.33
639.00	409.59
640.00	422.08
641.00	465.77
642.00	452.50
643.00	444.70
644.00	414.27
645.00	430.66
646.00	438.46
647.00	441.58
648.00	420.52
649.00	428.32
650.00	437.68
651.00	437.68
652.00	443.92
653.00	442.36
654.00	487.61
655.00	507.12
656.00	514.92
657.00	479.03
658.00	433.78
659.00	433.00
660.00	396.33
661.00	408.81
662.00	401.79
663.00	427.54
664.00	423.64
665.00	408.81
666.00	422.86
667.00	447.82
668.00	475.13
669.00	448.60
670.00	426.76
671.00	393.99
672.00	398.67
673.00	411.15
674.00	429.10
675.00	436.12
676.00	402.57
677.00	394.77
678.00	388.53
679.00	412.71
680.00	412.71
681.00	429.88
682.00	439.24
683.00	442.36
684.00	430.66
685.00	452.50
686.00	436.12
687.00	454.06
688.00	435.34
689.00	453.28
690.00	449.38
691.00	422.86
692.00	421.30
693.00	434.56
694.00	443.14
695.00	464.21
696.00	464.99
697.00	476.69
698.00	447.04
699.00	408.81
700.00	386.19
701.00	380.73
702.00	379.17
703.00	375.27
704.00	387.75
705.00	386.97
706.00	409.59
707.00	402.57
708.00	409.59
709.00	402.57
710.00	408.03
711.00	422.86
712.00	425.20
713.00	442.36
714.00	451.72
715.00	464.99
716.00	454.84
717.00	443.92
718.00	466.55
719.00	489.17
720.00	488.39
721.00	455.62
722.00	414.27
723.00	426.76
724.00	423.64
725.00	455.62
726.00	434.56
727.00	436.90
728.00	412.71
729.00	436.12
730.00	443.92
731.00	450.94
732.00	450.16
733.00	464.21
734.00	486.05
735.00	496.97
736.00	496.19
737.00	528.96
738.00	528.96
739.00	520.38
740.00	483.71
741.00	459.53
742.00	438.46
743.00	429.88
744.00	431.44
745.00	447.82
746.00	448.60
747.00	462.65
748.00	446.26
749.00	441.58
750.00	433.00
751.00	438.46
752.00	424.42
753.00	397.11
754.00	421.30
755.00	430.66
756.00	467.33
757.00	458.74
758.00	482.93
759.00	492.29
760.00	501.65
761.00	497.75
762.00	489.17
763.00	473.57
764.00	456.40
765.00	446.26
766.00	424.42
767.00	411.15
768.00	413.49
769.00	408.03
770.00	388.53
771.00	388.53
772.00	403.35
773.00	454.84
774.00	461.87
775.00	472.79
776.00	431.44
777.00	432.22
778.00	454.06
779.00	501.65
780.00	537.54
781.00	582.01
782.00	595.28
783.00	624.14
784.00	559.39
785.00	523.50
786.00	447.04
787.00	448.60
788.00	436.12
789.00	432.22
790.00	436.90
791.00	443.14
792.00	451.72
793.00	447.82
794.00	444.70
795.00	448.60
796.00	445.48
797.00	447.82
798.00	465.77
799.00	507.90
800.00	513.36
801.00	508.68
802.00	458.74
803.00	475.13
804.00	470.45
805.00	473.57
806.00	452.50
807.00	425.20
808.00	428.32
809.00	437.68
810.00	458.74
811.00	447.04
812.00	424.42
813.00	407.25
814.00	408.03
815.00	431.44
816.00	422.08
817.00	425.20
818.00	410.37
819.00	422.86
820.00	433.78
821.00	464.99
822.00	493.85
823.00	535.20
824.00	546.91
825.00	534.42
826.00	497.75
827.00	454.06
828.00	450.94
829.00	436.12
830.00	466.55
831.00	451.72
832.00	468.89
833.00	472.79
834.00	498.53
835.00	499.31
836.00	489.95
837.00	461.09
838.00	457.18
839.00	455.62
840.00	472.01
841.00	482.93
842.00	436.90
843.00	444.70
844.00	427.54
845.00	454.84
846.00	449.38
847.00	440.02
848.00	468.89
849.00	485.27
850.00	496.19
851.00	462.65
852.00	420.52
853.00	429.88
854.00	433.78
855.00	425.98
856.00	429.88
857.00	440.02
858.00	458.75
859.00	457.96
860.00	440.02
861.00	443.14
862.00	429.10
863.00	450.94
864.00	434.56
865.00	434.56
866.00	423.64
867.00	440.02
868.00	438.46
869.00	425.20
870.00	417.40
871.00	420.52
872.00	425.20
873.00	443.14
874.00	452.50
875.00	457.18
876.00	422.08
877.00	396.33
878.00	405.69
879.00	432.22
880.00	454.84
881.00	440.80
882.00	432.22
883.00	418.18
884.00	432.22
885.00	414.27
886.00	454.06
887.00	446.26
888.00	486.83
889.00	470.45
890.00	460.31
891.00	467.33
892.00	454.06
893.00	464.21
894.00	443.14
895.00	436.12
896.00	431.44
897.00	441.58
898.00	436.12
899.00	450.16
900.00	450.94
901.00	482.15
902.00	514.92
903.00	574.99
904.00	655.35
905.00	734.93
906.00	780.18
907.00	769.26
908.00	762.23
909.00	1022.03
910.00	1055.58
911.00	1100.05
912.00	858.20
913.00	865.22
914.00	806.70
915.00	741.17
916.00	661.59
917.00	587.47
918.00	504.00
919.00	458.74
920.00	461.87
921.00	484.49
922.00	498.53
923.00	472.79
924.00	453.28
925.00	417.40
926.00	418.96
927.00	425.20
928.00	450.16
929.00	457.18
930.00	457.18
931.00	440.80
932.00	427.54
933.00	462.65
934.00	454.06
935.00	464.21
936.00	435.34
937.00	464.99
938.00	472.79
939.00	472.79
940.00	500.87
941.00	508.68
942.00	541.44
943.00	664.71
944.00	1095.37
945.00	1918.46
946.00	2902.26
947.00	3618.47
948.00	3687.12
949.00	3185.47
950.00	2401.39
951.00	1648.52
952.00	1068.06
953.00	713.08
954.00	539.88
955.00	507.12
956.00	496.19
957.00	528.96
958.00	491.51
959.00	482.93
960.00	448.60
961.00	459.53
962.00	454.84
963.00	458.74
964.00	456.40
965.00	451.72
966.00	447.82
967.00	474.35
968.00	484.49
969.00	496.19
970.00	461.87
971.00	447.82
972.00	431.44
973.00	411.93
974.00	411.93
975.00	429.10
976.00	454.84
977.00	447.82
978.00	429.88
979.00	422.08
980.00	436.12
981.00	468.11
982.00	444.70
983.00	426.76
984.00	376.05
985.00	413.49
986.00	421.30
987.00	433.00
988.00	403.35
989.00	408.81
990.00	436.90
991.00	437.68
992.00	422.86
993.00	397.89
994.00	419.74
995.00	422.86
996.00	446.26
997.00	455.62
998.00	471.23
999.00	444.70
1000.00	447.82
1001.00	436.90
1002.00	451.72
1003.00	443.14
1004.00	448.60
1005.00	440.80
1006.00	453.28
1007.00	450.16
1008.00	441.58
1009.00	442.36
1010.00	440.80
1011.00	437.68
1012.00	452.50
1013.00	457.18
1014.00	490.73
1015.00	448.60
1016.00	464.21
1017.00	448.60
1018.00	460.31
1019.00	433.78
1020.00	433.78
1021.00	425.20
1022.00	443.92
1023.00	444.70
1024.00	458.75
1025.00	444.70
1026.00	419.74
1027.00	421.30
1028.00	395.55
1029.00	408.03
1030.00	386.19
1031.00	407.25
1032.00	421.30
1033.00	424.42
1034.00	434.56
1035.00	404.91
1036.00	429.88
1037.00	440.80
1038.00	486.05
1039.00	473.57
1040.00	479.81
1041.00	475.13
1042.00	475.91
1043.00	472.79
1044.00	493.07
1045.00	543.78
1046.00	534.42
1047.00	510.24
1048.00	442.36
1049.00	456.40
1050.00	447.04
1051.00	434.56
1052.00	438.46
1053.00	410.37
1054.00	427.54
1055.00	397.89
1056.00	393.99
1057.00	388.53
1058.00	408.81
1059.00	448.60
1060.00	445.48
1061.00	446.26
1062.00	447.04
1063.00	457.96
1064.00	418.18
1065.00	410.37
1066.00	393.21
1067.00	437.68
1068.00	435.34
1069.00	461.87
1070.00	458.74
1071.00	462.65
1072.00	448.60
1073.00	443.92
1074.00	449.38
1075.00	462.65
1076.00	477.47
1077.00	472.01
1078.00	490.73
1079.00	495.41
1080.00	490.73
1081.00	454.84
1082.00	420.52
1083.00	406.47
1084.00	425.98
1085.00	436.12
1086.00	453.28
1087.00	440.80
1088.00	407.25
1089.00	418.18
1090.00	431.44
1091.00	458.74
1092.00	433.78
1093.00	428.32
1094.00	422.08
1095.00	434.56
1096.00	438.46
1097.00	457.18
1098.00	485.27
1099.00	517.26
1100.00	575.77
1101.00	573.43
1102.00	576.55
1103.00	546.91
1104.00	519.60
1105.00	476.69
1106.00	446.26
1107.00	472.79
1108.00	493.07
1109.00	471.23
1110.00	440.80
1111.00	405.69
1112.00	450.16
1113.00	453.28
1114.00	451.72
1115.00	434.56
1116.00	475.13
1117.00	502.43
1118.00	507.12
1119.00	480.59
1120.00	492.29
1121.00	488.39
1122.00	511.80
1123.00	486.83
1124.00	504.78
1125.00	450.16
1126.00	445.48
1127.00	421.30
1128.00	450.16
1129.00	452.50
1130.00	450.16
1131.00	441.58
1132.00	471.23
1133.00	486.05
1134.00	506.34
1135.00	499.31
1136.00	484.49
1137.00	495.41
1138.00	531.30
1139.00	549.25
1140.00	537.54
1141.00	489.17
1142.00	476.69
1143.00	466.55
1144.00	473.57
1145.00	469.67
1146.00	494.63
1147.00	509.46
1148.00	538.32
1149.00	528.18
1150.00	520.38
1151.00	518.82
1152.00	518.82
1153.00	550.81
1154.00	563.29
1155.00	632.72
1156.00	695.14
1157.00	731.03
1158.00	738.83
1159.00	719.32
1160.00	699.04
1161.00	637.41
1162.00	568.75
1163.00	606.20
1164.00	768.48
1165.00	1077.43
1166.00	1387.16
1167.00	1617.31
1168.00	1643.84
1169.00	1520.57
1170.00	1287.29
1171.00	1047.00
1172.00	841.03
1173.00	721.67
1174.00	635.07
1175.00	602.30
1176.00	572.65
1177.00	585.91
1178.00	573.43
1179.00	562.51
1180.00	575.77
1181.00	583.57
1182.00	604.64
1183.00	609.32
1184.00	630.38
1185.00	651.45
1186.00	644.43
1187.00	655.35
1188.00	642.87
1189.00	682.66
1190.00	716.98
1191.00	783.30
1192.00	845.71
1193.00	874.58
1194.00	869.12
1195.00	816.85
1196.00	826.21
1197.00	830.11
1198.00	903.45
1199.00	1021.25
1200.00	1189.77
1201.00	1400.42
1202.00	1465.18
1203.00	1465.96
1204.00	1362.97
1205.00	1275.59
1206.00	1176.51
1207.00	1114.10
1208.00	1112.53
1209.00	1141.40
1210.00	1183.53
1211.00	1243.60
1212.00	1343.47
1213.00	1489.36
1214.00	1678.94
1215.00	2020.66
1216.00	2567.57
1217.00	5834.18
1218.00	21246.60
1219.00	41983.75
1220.00	59924.74
1221.00	65535.00
1222.00	65535.00
1223.00	65535.00
1224.00	65535.00
1225.00	65318.11
1226.00	56208.75
1227.00	40610.64
1228.00	22042.39
1229.00	10844.48
1230.00	5562.67
1231.00	3209.65
1232.00	2267.20
1233.00	1852.92
1234.00	1673.48
1235.00	1641.50
1236.00	2105.70
1237.00	3739.40
1238.00	7044.23
1239.00	11615.30
1240.00	15349.23
1241.00	16427.44
1242.00	14541.75
1243.00	11158.11
1244.00	7668.38
1245.00	4789.52
1246.00	2807.86
1247.00	1735.12
1248.00	1224.88
1249.00	971.32
1250.00	897.21
1251.00	924.51
1252.00	1054.80
1253.00	1166.37
1254.00	1225.66
1255.00	1224.88
1256.00	1193.67
1257.00	1117.22
1258.00	1016.57
1259.00	908.91
1260.00	891.74
1261.00	866.78
1262.00	906.57
1263.00	907.35
1264.00	880.82
1265.00	799.68
1266.00	763.01
1267.00	763.79
1268.00	807.48
1269.00	811.39
1270.00	823.09
1271.00	802.02
1272.00	781.74
1273.00	802.80
1274.00	854.30
1275.00	1243.60
1276.00	2960.78
1277.00	7170.62
1278.00	14658.00
1279.00	22856.89
1280.00	28540.49
1281.00	28603.69
1282.00	24487.46
1283.00	17906.66
1284.00	11683.17
1285.00	6694.71
1286.00	3690.24
1287.00	2139.25
1288.00	1384.04
1289.00	1042.32
1290.00	913.59
1291.00	876.92
1292.00	894.08
1293.00	902.67
1294.00	906.57
1295.00	1079.77
1296.00	1719.51
1297.00	2957.66
1298.00	4677.95
1299.00	6164.19
1300.00	6773.51
1301.00	6285.90
1302.00	5069.60
1303.00	3605.99
1304.00	2396.71
1305.00	1565.04
1306.00	1174.95
1307.00	966.64
1308.00	870.68
1309.00	823.09
1310.00	761.45
1311.00	698.26
1312.00	653.79
1313.00	650.67
1314.00	602.30
1315.00	603.08
1316.00	560.95
1317.00	588.25
1318.00	557.05
1319.00	569.53
1320.00	574.21
1321.00	587.47
1322.00	580.45
1323.00	593.72
1324.00	572.65
1325.00	593.72
1326.00	542.22
1327.00	544.56
1328.00	513.36
1329.00	611.66
1330.00	975.22
1331.00	1907.54
1332.00	3501.44
1333.00	5500.26
1334.00	7043.45
1335.00	7452.27
1336.00	6651.80
1337.00	5198.33
1338.00	3659.04
1339.00	2378.76
1340.00	1508.87
1341.00	1049.34
1342.00	826.21
1343.00	731.03
1344.00	702.94
1345.00	670.17
1346.00	646.77
1347.00	634.29
1348.00	635.85
1349.00	669.39
1350.00	635.07
1351.00	631.16
1352.00	608.54
1353.00	666.27
1354.00	702.94
1355.00	734.93
1356.00	763.01
1357.00	864.44
1358.00	1442.55
1359.00	3456.19
1360.00	7696.46
1361.00	14176.62
1362.00	20405.57
1363.00	23861.76
1364.00	22715.68
1365.00	18876.42
1366.00	13534.54
1367.00	8904.96
1368.00	5104.71
1369.00	2967.02
1370.00	1855.26
1371.00	1465.96
1372.00	2205.56
1373.00	5555.65
1374.00	12868.27
1375.00	24171.49
1376.00	35541.03
1377.00	41979.85
1378.00	40818.16
1379.00	34212.39
1380.00	24883.80
1381.00	16120.83
1382.00	9065.68
1383.00	4936.19
1384.00	2803.96
1385.00	1676.60
1386.00	1204.60
1387.00	962.74
1388.00	872.24
1389.00	824.65
1390.00	809.05
1391.00	807.48
1392.00	823.09
1393.00	837.91
1394.00	929.97
1395.00	1093.81
1396.00	1337.23
1397.00	1617.31
1398.00	1786.61
1399.00	1810.01
1400.00	1732.78
1401.00	1694.55
1402.00	2230.53
1403.00	5681.26
1404.00	14760.20
1405.00	30451.93
1406.00	46298.92
1407.00	56952.26
1408.00	58862.91
1409.00	54582.85
1410.00	44742.46
1411.00	31656.53
1412.00	18984.09
1413.00	10063.52
1414.00	5288.05
1415.00	2995.11
1416.00	2413.87
1417.00	3612.23
1418.00	6665.85
1419.00	11191.66
1420.00	15396.82
1421.00	17368.34
1422.00	16367.37
1423.00	13382.40
1424.00	9647.69
1425.00	6271.86
1426.00	3684.78
1427.00	2235.21
1428.00	1468.30
1429.00	1097.71
1430.00	921.39
1431.00	851.17
1432.00	804.36
1433.00	791.10
1434.00	782.52
1435.00	785.64
1436.00	766.92
1437.00	710.74
1438.00	660.03
1439.00	585.91
1440.00	584.35
1441.00	600.74
1442.00	644.43
1443.00	627.26
1444.00	611.66
1445.00	592.94
1446.00	634.29
1447.00	635.85
1448.00	660.03
1449.00	663.15
1450.00	706.84
1451.00	988.49
1452.00	1859.95
1453.00	3659.04
1454.00	6275.76
1455.00	8784.03
1456.00	10255.45
1457.00	10015.15
1458.00	8575.72
1459.00	6395.90
1460.00	4333.11
1461.00	2645.59
1462.00	1658.66
1463.00	1116.44
1464.00	881.60
1465.00	759.89
1466.00	690.46
1467.00	654.57
1468.00	616.34
1469.00	627.26
1470.00	608.54
1471.00	617.90
1472.00	623.36
1473.00	647.55
1474.00	665.49
1475.00	667.83
1476.00	661.59
1477.00	648.33
1478.00	650.67
1479.00	695.14
1480.00	721.67
1481.00	750.53
1482.00	805.14
1483.00	1252.19
1484.00	3118.37
1485.00	7610.64
1486.00	15634.78
1487.00	25474.39
1488.00	33194.26
1489.00	35150.95
1490.00	31646.38
1491.00	24838.55
1492.00	17383.16
1493.00	10657.24
1494.00	5846.66
1495.00	3162.84
1496.00	1811.57
1497.00	1176.51
1498.00	891.74
1499.00	754.43
1500.00	692.80
1501.00	653.01
1502.00	633.50
1503.00	628.04
1504.00	628.04
1505.00	615.56
1506.00	628.04
1507.00	648.33
1508.00	717.76
1509.00	1000.97
1510.00	1836.54
1511.00	3314.20
1512.00	5443.31
1513.00	7521.70
1514.00	8702.89
1515.00	8463.38
1516.00	7208.07
1517.00	5468.27
1518.00	3844.72
1519.00	2424.80
1520.00	1565.82
1521.00	1084.45
1522.00	855.86
1523.00	758.33
1524.00	710.74
1525.00	695.14
1526.00	715.42
1527.00	760.67
1528.00	1025.15
1529.00	2082.30
1530.00	4716.96
1531.00	9447.96
1532.00	15687.83
1533.00	21239.58
1534.00	23580.90
1535.00	22117.28
1536.00	18011.20
1537.00	13113.24
1538.00	8503.95
1539.00	4933.07
1540.00	2789.14
1541.00	1676.60
1542.00	1179.63
1543.00	940.12
1544.00	802.80
1545.00	743.51
1546.00	717.76
1547.00	706.06
1548.00	688.90
1549.00	676.41
1550.00	677.98
1551.00	695.14
1552.00	680.32
1553.00	699.04
1554.00	727.91
1555.00	742.73
1556.00	791.10
1557.00	768.48
1558.00	810.61
1559.00	834.79
1560.00	969.76
1561.00	1696.89
1562.00	4609.29
1563.00	11052.79
1564.00	21789.61
1565.00	33665.49
1566.00	42092.97
1567.00	43503.54
1568.00	38794.38
1569.00	30544.77
1570.00	21400.30
1571.00	13206.08
1572.00	7469.43
1573.00	4436.10
1574.00	3925.08
1575.00	7812.71
1576.00	17472.88
1577.00	33095.17
1578.00	47751.61
1579.00	57159.78
1580.00	58346.43
1581.00	54255.18
1582.00	45213.69
1583.00	32936.02
1584.00	20403.23
1585.00	11088.68
1586.00	5752.26
1587.00	3141.00
1588.00	1875.55
1589.00	1352.83
1590.00	1111.75
1591.00	987.71
1592.00	897.99
1593.00	832.45
1594.00	784.08
1595.00	716.20
1596.00	692.02
1597.00	653.79
1598.00	634.29
1599.00	608.54
1600.00	604.64
1601.00	608.54
1602.00	591.38
1603.00	571.87
1604.00	584.35
1605.00	592.16
1606.00	611.66
1607.00	616.34
1608.00	603.86
1609.00	596.84
1610.00	596.84
1611.00	606.20
1612.00	584.35
1613.00	559.39
1614.00	516.48
1615.00	513.36
1616.00	515.70
1617.00	535.98
1618.00	553.15
1619.00	560.95
1620.00	563.29
1621.00	555.49
1622.00	570.31
1623.00	575.77
1624.00	610.88
1625.00	601.52
1626.00	596.84
1627.00	575.77
1628.00	587.47
1629.00	599.18
1630.00	595.28
1631.00	601.52
1632.00	599.18
1633.00	631.94
1634.00	618.68
1635.00	649.89
1636.00	630.38
1637.00	633.50
1638.00	615.56
1639.00	655.35
1640.00	653.01
1641.00	672.51
1642.00	676.41
1643.00	723.23
1644.00	822.31
1645.00	1334.89
1646.00	3430.45
1647.00	8070.17
1648.00	16136.43
1649.00	25413.54
1650.00	32671.54
1651.00	34638.37
1652.00	31917.89
1653.00	26116.48
1654.00	19113.59
1655.00	12301.08
1656.00	7004.44
1657.00	3861.88
1658.00	2197.76
1659.00	1401.20
1660.00	1017.35
1661.00	858.98
1662.00	793.44
1663.00	897.21
1664.00	1479.22
1665.00	2864.82
1666.00	5329.40
1667.00	8435.29
1668.00	11123.79
1669.00	12299.52
1670.00	11531.82
1671.00	9625.84
1672.00	7269.70
1673.00	5081.30
1674.00	3242.42
1675.00	1952.79
1676.00	1249.85
1677.00	881.60
1678.00	697.48
1679.00	592.16
1680.00	574.99
1681.00	570.31
1682.00	570.31
1683.00	518.04
1684.00	519.60
1685.00	532.86
1686.00	533.64
1687.00	521.16
1688.00	486.05
1689.00	509.46
1690.00	494.63
1691.00	504.00
1692.00	475.13
1693.00	475.91
1694.00	479.81
1695.00	504.00
1696.00	504.78
1697.00	516.48
1698.00	525.06
1699.00	543.00
1700.00	538.32
1701.00	538.32
1702.00	539.88
1703.00	522.72
1704.00	546.91
1705.00	560.95
1706.00	596.84
1707.00	591.38
1708.00	641.31
1709.00	883.94
1710.00	1899.73
1711.00	3996.07
1712.00	7680.86
1713.00	12042.84
1714.00	15840.75
1715.00	17225.56
1716.00	16164.52
1717.00	13476.02
1718.00	10109.55
1719.00	6832.80
1720.00	4124.02
1721.00	2432.60
1722.00	1530.71
1723.00	1056.36
1724.00	814.51
1725.00	653.01
1726.00	583.57
1727.00	542.22
1728.00	553.93
1729.00	551.59
1730.00	556.27
1731.00	547.69
1732.00	538.32
1733.00	531.30
1734.00	514.92
1735.00	521.94
1736.00	521.16
1737.00	529.74
1738.00	523.50
1739.00	525.06
1740.00	535.98
1741.00	533.64
1742.00	523.50
1743.00	509.46
1744.00	487.61
1745.00	500.09
1746.00	502.43
1747.00	528.96
1748.00	514.92
1749.00	510.24
1750.00	518.04
1751.00	580.45
1752.00	608.54
1753.00	621.80
1754.00	611.66
1755.00	604.64
1756.00	598.40
1757.00	557.05
1758.00	564.07
1759.00	556.27
1760.00	592.94
1761.00	589.03
1762.00	627.26
1763.00	696.70
1764.00	843.37
1765.00	1489.36
1766.00	3712.09
1767.00	8049.10
1768.00	15036.38
1769.00	22643.90
1770.00	28702.77
1771.00	30275.61
1772.00	27872.66
1773.00	22592.41
1774.00	16587.38
1775.00	10860.09
1776.00	6539.46
1777.00	3786.21
1778.00	2253.94
1779.00	1420.71
1780.00	998.63
1781.00	786.42
1782.00	724.01
1783.00	682.66
1784.00	642.09
1785.00	622.58
1786.00	618.68
1787.00	609.32
1788.00	599.96
1789.00	603.86
1790.00	631.94
1791.00	645.99
1792.00	810.61
1793.00	1572.06
1794.00	3491.30
1795.00	6839.05
1796.00	11398.41
1797.00	15785.35
1798.00	18480.87
1799.00	18419.24
1800.00	16165.30
1801.00	12604.56
1802.00	8942.41
1803.00	5696.86
1804.00	3474.92
1805.00	2051.09
1806.00	1299.00
1807.00	883.94
1808.00	708.40
1809.00	629.60
1810.00	588.25
1811.00	539.88
1812.00	535.20
1813.00	522.72
1814.00	493.85
1815.00	473.57
1816.00	502.43
1817.00	546.91
1818.00	534.42
1819.00	515.70
1820.00	534.42
1821.00	598.40
1822.00	649.11
1823.00	692.80
1824.00	688.90
1825.00	672.51
1826.00	622.58
1827.00	631.94
1828.00	605.42
1829.00	583.57
1830.00	486.05
1831.00	466.55
1832.00	443.92
1833.00	459.53
1834.00	441.58
1835.00	449.38
1836.00	453.28
1837.00	472.79
1838.00	463.43
1839.00	457.18
1840.00	433.78
1841.00	414.27
1842.00	439.24
1843.00	443.14
1844.00	479.81
1845.00	453.28
1846.00	462.65
1847.00	447.82
1848.00	429.10
1849.00	437.68
1850.00	444.70
1851.00	464.21
1852.00	460.31
1853.00	455.62
1854.00	460.31
1855.00	430.66
1856.00	426.76
1857.00	403.35
1858.00	411.15
1859.00	414.27
1860.00	417.40
1861.00	444.70
1862.00	434.56
1863.00	459.53
1864.00	450.94
1865.00	462.65
1866.00	445.48
1867.00	431.44
1868.00	425.20
1869.00	430.66
1870.00	416.62
1871.00	417.40
1872.00	422.08
1873.00	438.46
1874.00	435.34
1875.00	438.46
1876.00	445.48
1877.00	451.72
1878.00	463.43
1879.00	471.23
1880.00	471.23
1881.00	430.66
1882.00	433.00
1883.00	429.10
1884.00	441.58
1885.00	425.20
1886.00	438.46
1887.00	448.60
1888.00	452.50
1889.00	432.22
1890.00	447.82
1891.00	465.77
1892.00	482.93
1893.00	493.85
1894.00	469.67
1895.00	440.80
1896.00	423.64
1897.00	419.74
1898.00	450.16
1899.00	437.68
1900.00	440.80
1901.00	429.88
1902.00	422.86
1903.00	419.74
1904.00	431.44
1905.00	466.55
1906.00	511.80
1907.00	553.15
1908.00	609.32
1909.00	653.79
1910.00	671.73
1911.00	638.97
1912.00	614.00
1913.00	568.75
1914.00	525.06
1915.00	513.36
1916.00	520.38
1917.00	538.32
1918.00	506.34
1919.00	476.69
1920.00	483.71
1921.00	490.73
1922.00	509.46
1923.00	496.97
1924.00	481.37
1925.00	466.55
1926.00	453.28
1927.00	450.16
1928.00	468.89
1929.00	451.72
1930.00	464.21
1931.00	430.66
1932.00	440.80
1933.00	441.58
1934.00	454.06
1935.00	463.43
1936.00	471.23
1937.00	479.03
1938.00	486.05
1939.00	440.02
1940.00	459.53
1941.00	464.21
1942.00	496.19
1943.00	468.11
1944.00	482.15
1945.00	514.14
1946.00	593.72
1947.00	932.31
1948.00	2008.96
1949.00	4038.20
1950.00	7151.12
1951.00	10658.80
1952.00	13532.98
1953.00	14498.84
1954.00	13706.18
1955.00	11738.57
1956.00	9340.30
1957.00	6854.65
1958.00	4706.82
1959.00	3135.54
1960.00	2081.52
1961.00	1369.21
1962.00	986.93
1963.00	742.73
1964.00	648.33
1965.00	570.31
1966.00	544.56
1967.00	500.09
1968.00	503.22
1969.00	535.98
1970.00	554.71
1971.00	556.27
1972.00	510.24
1973.00	520.38
1974.00	543.78
1975.00	628.04
1976.00	736.49
1977.00	912.81
1978.00	1087.57
1979.00	1214.74
1980.00	1266.23
1981.00	1213.96
1982.00	1109.41
1983.00	969.76
1984.00	855.08
1985.00	730.25
1986.00	639.75
1987.00	582.01
1988.00	545.34
1989.00	528.18
1990.00	493.85
1991.00	469.67
1992.00	453.28
1993.00	433.00
1994.00	447.82
1995.00	428.32
1996.00	454.06
1997.00	437.68
1998.00	496.19
1999.00	496.97
2000.00	521.16
2001.00	500.87
2002.00	534.42
2003.00	543.78
2004.00	536.76
2005.00	500.87
2006.00	511.80
2007.00	500.09
2008.00	482.15
2009.00	489.17
2010.00	490.73
2011.00	539.10
2012.00	520.38
2013.00	522.72
2014.00	493.07
2015.00	494.63
2016.00	513.36
2017.00	566.41
2018.00	591.38
2019.00	671.73
2020.00	777.06
2021.00	981.46
2022.00	1171.83
2023.00	1403.54
2024.00	1919.24
2025.00	3485.06
2026.00	6683.01
2027.00	11698.78
2028.00	18398.95
2029.00	24854.15
2030.00	29323.79
2031.00	29944.81
2032.00	27860.96
2033.00	23908.57
2034.00	19020.75
2035.00	13932.43
2036.00	9491.65
2037.00	6260.93
2038.00	3977.35
2039.00	2438.06
2040.00	1588.44
2041.00	1159.35
2042.00	953.38
2043.00	837.91
2044.00	766.92
2045.00	699.82
2046.00	644.43
2047.00	596.84
>>>>>End Processed Spectral Data<<<<<
