SpectraSuite Data File
++++++++++++++++++++++++++++++++++++
Date: Thu Nov 16 14:27:24 EST 2017
User: cheriyan
Dark Spectrum Present: No
Reference Spectrum Present: No
Number of Sampled Component Spectra: 1
Spectrometers: USB2+H05261
Integration Time (usec): 100000 (USB2+H05261)
Spectra Averaged: 1 (USB2+H05261)
Boxcar Smoothing: 1 (USB2+H05261)
Correct for Electrical Dark: No (USB2+H05261)
Strobe/Lamp Enabled: No (USB2+H05261)
Correct for Detector Non-linearity: No (USB2+H05261)
Correct for Stray Light: No (USB2+H05261)
Number of Pixels in Processed Spectrum: 2048
>>>>>Begin Processed Spectral Data<<<<<
0.00	339.38
1.00	339.38
2.00	311.29
3.00	293.35
4.00	251.22
5.00	219.23
6.00	197.39
7.00	184.90
8.00	216.11
9.00	196.61
10.00	207.53
11.00	206.75
12.00	217.67
13.00	232.49
14.00	241.08
15.00	227.81
16.00	227.03
17.00	223.13
18.00	280.08
19.00	272.28
20.00	268.38
21.00	252.78
22.00	280.86
23.00	286.33
24.00	295.69
25.00	282.42
26.00	311.29
27.00	358.10
28.00	373.71
29.00	377.61
30.00	362.00
31.00	354.20
32.00	332.36
33.00	316.75
34.00	359.66
35.00	410.37
36.00	431.44
37.00	425.20
38.00	373.71
39.00	364.34
40.00	370.58
41.00	399.45
42.00	418.96
43.00	418.96
44.00	435.34
45.00	404.13
46.00	393.99
47.00	375.27
48.00	398.67
49.00	390.87
50.00	417.40
51.00	427.54
52.00	461.09
53.00	443.92
54.00	411.15
55.00	386.97
56.00	386.19
57.00	393.99
58.00	389.31
59.00	392.43
60.00	395.55
61.00	414.27
62.00	398.67
63.00	402.57
64.00	387.75
65.00	382.29
66.00	368.24
67.00	371.36
68.00	382.29
69.00	376.83
70.00	368.24
71.00	384.63
72.00	398.67
73.00	410.37
74.00	414.27
75.00	428.32
76.00	413.49
77.00	400.23
78.00	370.58
79.00	370.58
80.00	357.32
81.00	357.32
82.00	338.60
83.00	328.46
84.00	338.60
85.00	372.93
86.00	379.95
87.00	390.87
88.00	411.15
89.00	438.46
90.00	455.62
91.00	441.58
92.00	415.84
93.00	372.15
94.00	350.30
95.00	364.34
96.00	386.97
97.00	393.99
98.00	372.15
99.00	337.04
100.00	324.55
101.00	339.38
102.00	374.49
103.00	397.11
104.00	386.19
105.00	381.51
106.00	365.90
107.00	373.71
108.00	375.27
109.00	368.24
110.00	377.61
111.00	366.68
112.00	381.51
113.00	386.19
114.00	384.63
115.00	373.71
116.00	359.66
117.00	365.90
118.00	364.34
119.00	377.61
120.00	378.39
121.00	369.02
122.00	362.78
123.00	351.08
124.00	369.80
125.00	357.32
126.00	358.10
127.00	376.05
128.00	382.29
129.00	397.89
130.00	381.51
131.00	393.21
132.00	397.11
133.00	412.71
134.00	400.23
135.00	395.55
136.00	373.71
137.00	389.31
138.00	396.33
139.00	399.45
140.00	372.93
141.00	369.80
142.00	343.28
143.00	360.44
144.00	362.00
145.00	379.95
146.00	351.08
147.00	337.82
148.00	369.80
149.00	392.43
150.00	412.71
151.00	395.55
152.00	389.31
153.00	377.61
154.00	400.23
155.00	411.93
156.00	422.86
157.00	392.43
158.00	377.61
159.00	375.27
160.00	379.95
161.00	390.09
162.00	391.65
163.00	390.87
164.00	391.65
165.00	372.15
166.00	372.93
167.00	371.36
168.00	393.99
169.00	399.45
170.00	391.65
171.00	381.51
172.00	379.95
173.00	396.33
174.00	390.87
175.00	383.07
176.00	365.90
177.00	376.05
178.00	385.41
179.00	390.09
180.00	387.75
181.00	385.41
182.00	401.01
183.00	397.89
184.00	394.77
185.00	372.93
186.00	358.10
187.00	337.82
188.00	362.78
189.00	378.39
190.00	393.21
191.00	372.15
192.00	368.24
193.00	358.88
194.00	377.61
195.00	397.89
196.00	422.08
197.00	413.49
198.00	384.63
199.00	379.95
200.00	384.63
201.00	405.69
202.00	386.19
203.00	379.17
204.00	365.12
205.00	379.17
206.00	390.87
207.00	375.27
208.00	380.73
209.00	377.61
210.00	415.06
211.00	434.56
212.00	440.02
213.00	418.18
214.00	382.29
215.00	379.17
216.00	420.52
217.00	433.00
218.00	425.98
219.00	372.15
220.00	384.63
221.00	411.15
222.00	442.36
223.00	434.56
224.00	410.37
225.00	388.53
226.00	350.30
227.00	334.70
228.00	333.14
229.00	391.65
230.00	425.98
231.00	422.08
232.00	395.55
233.00	370.58
234.00	381.51
235.00	360.44
236.00	383.07
237.00	388.53
238.00	394.77
239.00	370.58
240.00	369.02
241.00	393.21
242.00	431.44
243.00	422.08
244.00	439.24
245.00	404.13
246.00	389.31
247.00	367.46
248.00	364.34
249.00	377.61
250.00	376.05
251.00	383.85
252.00	403.35
253.00	394.77
254.00	405.69
255.00	403.35
256.00	411.15
257.00	371.36
258.00	379.95
259.00	398.67
260.00	415.06
261.00	386.19
262.00	359.66
263.00	388.53
264.00	394.77
265.00	394.77
266.00	374.49
267.00	386.97
268.00	393.99
269.00	352.64
270.00	369.02
271.00	369.80
272.00	419.74
273.00	418.18
274.00	428.32
275.00	435.34
276.00	411.93
277.00	390.09
278.00	375.27
279.00	400.23
280.00	427.54
281.00	429.10
282.00	402.57
283.00	396.33
284.00	407.25
285.00	406.47
286.00	397.89
287.00	379.95
288.00	402.57
289.00	403.35
290.00	413.49
291.00	410.37
292.00	407.25
293.00	384.63
294.00	367.46
295.00	355.76
296.00	359.66
297.00	375.27
298.00	378.39
299.00	382.29
300.00	364.34
301.00	355.76
302.00	347.18
303.00	372.15
304.00	388.53
305.00	429.10
306.00	438.46
307.00	443.14
308.00	420.52
309.00	384.63
310.00	385.41
311.00	401.01
312.00	417.40
313.00	389.31
314.00	380.73
315.00	375.27
316.00	400.23
317.00	401.79
318.00	379.17
319.00	393.99
320.00	388.53
321.00	422.86
322.00	414.27
323.00	411.15
324.00	388.53
325.00	393.99
326.00	414.27
327.00	428.32
328.00	415.84
329.00	393.99
330.00	393.21
331.00	388.53
332.00	426.76
333.00	450.16
334.00	464.99
335.00	411.93
336.00	388.53
337.00	391.65
338.00	401.79
339.00	401.01
340.00	369.80
341.00	380.73
342.00	375.27
343.00	397.11
344.00	415.84
345.00	408.03
346.00	426.76
347.00	404.13
348.00	401.79
349.00	383.07
350.00	401.01
351.00	435.34
352.00	464.99
353.00	459.53
354.00	441.58
355.00	397.11
356.00	389.31
357.00	386.97
358.00	395.55
359.00	399.45
360.00	405.69
361.00	425.98
362.00	404.13
363.00	385.41
364.00	377.61
365.00	402.57
366.00	415.84
367.00	422.08
368.00	439.24
369.00	461.87
370.00	443.92
371.00	400.23
372.00	365.90
373.00	373.71
374.00	402.57
375.00	392.43
376.00	380.73
377.00	363.56
378.00	395.55
379.00	409.59
380.00	384.63
381.00	359.66
382.00	343.28
383.00	385.41
384.00	389.31
385.00	428.32
386.00	409.59
387.00	423.64
388.00	398.67
389.00	406.47
390.00	387.75
391.00	374.49
392.00	388.53
393.00	402.57
394.00	385.41
395.00	393.99
396.00	413.49
397.00	456.40
398.00	433.00
399.00	422.86
400.00	397.11
401.00	401.01
402.00	400.23
403.00	415.84
404.00	418.18
405.00	416.62
406.00	427.54
407.00	429.88
408.00	426.76
409.00	433.00
410.00	444.70
411.00	442.36
412.00	418.96
413.00	407.25
414.00	390.87
415.00	393.99
416.00	396.33
417.00	410.37
418.00	404.91
419.00	390.09
420.00	380.73
421.00	390.09
422.00	390.09
423.00	391.65
424.00	388.53
425.00	386.97
426.00	402.57
427.00	415.84
428.00	422.86
429.00	441.58
430.00	417.40
431.00	421.30
432.00	387.75
433.00	401.01
434.00	393.99
435.00	395.55
436.00	383.85
437.00	383.07
438.00	397.11
439.00	403.35
440.00	415.84
441.00	425.20
442.00	410.37
443.00	399.45
444.00	388.53
445.00	393.99
446.00	412.71
447.00	433.00
448.00	446.26
449.00	432.22
450.00	406.47
451.00	409.59
452.00	401.79
453.00	413.49
454.00	398.67
455.00	411.93
456.00	396.33
457.00	397.11
458.00	354.20
459.00	351.86
460.00	351.86
461.00	387.75
462.00	396.33
463.00	396.33
464.00	390.87
465.00	404.13
466.00	397.11
467.00	389.31
468.00	371.36
469.00	358.88
470.00	374.49
471.00	372.15
472.00	377.61
473.00	372.93
474.00	376.83
475.00	385.41
476.00	369.02
477.00	378.39
478.00	393.21
479.00	417.40
480.00	416.62
481.00	429.88
482.00	422.86
483.00	425.20
484.00	433.00
485.00	396.33
486.00	377.61
487.00	361.22
488.00	396.33
489.00	405.69
490.00	376.83
491.00	374.49
492.00	362.00
493.00	393.21
494.00	413.49
495.00	434.56
496.00	435.34
497.00	409.59
498.00	401.01
499.00	389.31
500.00	431.44
501.00	446.26
502.00	434.56
503.00	397.11
504.00	365.12
505.00	372.15
506.00	391.65
507.00	403.35
508.00	416.62
509.00	388.53
510.00	410.37
511.00	415.06
512.00	441.58
513.00	429.10
514.00	422.86
515.00	420.52
516.00	417.40
517.00	412.71
518.00	403.35
519.00	404.91
520.00	402.57
521.00	401.01
522.00	411.93
523.00	422.08
524.00	407.25
525.00	403.35
526.00	399.45
527.00	425.20
528.00	401.01
529.00	388.53
530.00	390.09
531.00	415.84
532.00	418.96
533.00	431.44
534.00	443.92
535.00	454.84
536.00	440.80
537.00	422.08
538.00	424.42
539.00	427.54
540.00	420.52
541.00	403.35
542.00	395.55
543.00	420.52
544.00	431.44
545.00	420.52
546.00	382.29
547.00	377.61
548.00	384.63
549.00	409.59
550.00	413.49
551.00	412.71
552.00	415.84
553.00	440.80
554.00	445.48
555.00	456.40
556.00	421.30
557.00	408.81
558.00	362.78
559.00	383.07
560.00	370.58
561.00	369.80
562.00	330.02
563.00	326.89
564.00	343.28
565.00	369.80
566.00	404.91
567.00	401.01
568.00	397.11
569.00	376.83
570.00	380.73
571.00	386.19
572.00	390.09
573.00	417.40
574.00	449.38
575.00	447.82
576.00	419.74
577.00	352.64
578.00	368.24
579.00	372.15
580.00	395.55
581.00	389.31
582.00	407.25
583.00	443.14
584.00	445.48
585.00	426.76
586.00	397.89
587.00	383.07
588.00	394.77
589.00	418.96
590.00	430.66
591.00	425.98
592.00	405.69
593.00	401.79
594.00	379.17
595.00	378.39
596.00	372.15
597.00	376.05
598.00	391.65
599.00	420.52
600.00	482.15
601.00	477.47
602.00	443.14
603.00	399.45
604.00	392.43
605.00	404.13
606.00	404.13
607.00	394.77
608.00	401.79
609.00	404.13
610.00	396.33
611.00	376.05
612.00	352.64
613.00	330.02
614.00	337.82
615.00	374.49
616.00	421.30
617.00	443.14
618.00	415.84
619.00	389.31
620.00	394.77
621.00	410.37
622.00	411.93
623.00	387.75
624.00	407.25
625.00	433.00
626.00	431.44
627.00	411.15
628.00	393.99
629.00	414.27
630.00	397.11
631.00	393.21
632.00	381.51
633.00	411.15
634.00	457.96
635.00	499.31
636.00	593.72
637.00	628.04
638.00	653.79
639.00	596.06
640.00	548.47
641.00	496.97
642.00	454.06
643.00	445.48
644.00	436.12
645.00	443.14
646.00	425.20
647.00	431.44
648.00	415.06
649.00	409.59
650.00	425.20
651.00	415.84
652.00	418.18
653.00	379.95
654.00	425.20
655.00	433.78
656.00	450.94
657.00	391.65
658.00	379.95
659.00	370.58
660.00	382.29
661.00	388.53
662.00	377.61
663.00	379.17
664.00	384.63
665.00	390.09
666.00	383.07
667.00	369.80
668.00	362.78
669.00	389.31
670.00	391.65
671.00	402.57
672.00	397.11
673.00	419.74
674.00	402.57
675.00	406.47
676.00	415.84
677.00	426.76
678.00	427.54
679.00	442.36
680.00	474.35
681.00	464.21
682.00	425.98
683.00	401.79
684.00	402.57
685.00	401.01
686.00	394.77
687.00	377.61
688.00	368.24
689.00	365.90
690.00	376.83
691.00	379.17
692.00	383.07
693.00	397.89
694.00	390.87
695.00	412.71
696.00	403.35
697.00	390.09
698.00	383.85
699.00	369.02
700.00	405.69
701.00	396.33
702.00	411.15
703.00	416.62
704.00	413.49
705.00	415.06
706.00	397.89
707.00	398.67
708.00	401.79
709.00	416.62
710.00	419.74
711.00	416.62
712.00	397.11
713.00	390.87
714.00	392.43
715.00	407.25
716.00	426.76
717.00	459.53
718.00	507.12
719.00	496.97
720.00	461.87
721.00	421.30
722.00	426.76
723.00	440.80
724.00	456.40
725.00	457.96
726.00	450.94
727.00	443.92
728.00	432.22
729.00	424.42
730.00	409.59
731.00	406.47
732.00	396.33
733.00	410.37
734.00	409.59
735.00	410.37
736.00	385.41
737.00	386.97
738.00	361.22
739.00	366.68
740.00	368.24
741.00	393.99
742.00	404.13
743.00	441.58
744.00	470.45
745.00	471.23
746.00	395.55
747.00	356.54
748.00	333.14
749.00	354.20
750.00	368.24
751.00	373.71
752.00	408.03
753.00	411.93
754.00	420.52
755.00	412.71
756.00	410.37
757.00	412.71
758.00	415.06
759.00	403.35
760.00	403.35
761.00	357.32
762.00	368.24
763.00	369.80
764.00	400.23
765.00	411.15
766.00	407.25
767.00	415.06
768.00	398.67
769.00	362.78
770.00	362.00
771.00	371.36
772.00	404.91
773.00	415.84
774.00	422.08
775.00	419.74
776.00	391.65
777.00	383.07
778.00	396.33
779.00	419.74
780.00	433.00
781.00	437.68
782.00	441.58
783.00	504.78
784.00	479.03
785.00	457.96
786.00	372.93
787.00	393.21
788.00	388.53
789.00	393.99
790.00	386.19
791.00	412.71
792.00	414.27
793.00	422.08
794.00	391.65
795.00	393.99
796.00	358.88
797.00	354.20
798.00	335.48
799.00	351.86
800.00	369.80
801.00	390.09
802.00	407.25
803.00	420.52
804.00	415.06
805.00	395.55
806.00	385.41
807.00	398.67
808.00	398.67
809.00	408.03
810.00	431.44
811.00	428.32
812.00	415.84
813.00	386.97
814.00	411.93
815.00	418.96
816.00	433.78
817.00	419.74
818.00	402.57
819.00	398.67
820.00	396.33
821.00	406.47
822.00	393.21
823.00	404.91
824.00	388.53
825.00	376.05
826.00	375.27
827.00	383.85
828.00	393.21
829.00	408.03
830.00	450.16
831.00	428.32
832.00	399.45
833.00	363.56
834.00	364.34
835.00	366.68
836.00	363.56
837.00	375.27
838.00	362.78
839.00	357.32
840.00	364.34
841.00	375.27
842.00	415.06
843.00	423.64
844.00	449.38
845.00	418.96
846.00	418.96
847.00	393.21
848.00	406.47
849.00	430.66
850.00	431.44
851.00	408.81
852.00	369.02
853.00	386.19
854.00	392.43
855.00	414.27
856.00	402.57
857.00	402.57
858.00	388.53
859.00	379.17
860.00	376.83
861.00	386.97
862.00	409.59
863.00	419.74
864.00	403.35
865.00	404.13
866.00	403.35
867.00	396.33
868.00	392.43
869.00	390.87
870.00	427.54
871.00	419.74
872.00	413.49
873.00	415.84
874.00	418.18
875.00	441.58
876.00	415.06
877.00	390.87
878.00	391.65
879.00	397.11
880.00	440.02
881.00	437.68
882.00	425.98
883.00	404.91
884.00	388.53
885.00	416.62
886.00	418.96
887.00	429.10
888.00	404.13
889.00	411.93
890.00	390.87
891.00	398.67
892.00	404.13
893.00	398.67
894.00	393.21
895.00	382.29
896.00	410.37
897.00	413.49
898.00	415.84
899.00	432.22
900.00	419.74
901.00	400.23
902.00	369.80
903.00	398.67
904.00	405.69
905.00	403.35
906.00	376.83
907.00	355.76
908.00	347.96
909.00	699.82
910.00	754.43
911.00	773.16
912.00	418.18
913.00	377.61
914.00	386.19
915.00	408.03
916.00	398.67
917.00	402.57
918.00	409.59
919.00	418.18
920.00	386.19
921.00	375.27
922.00	378.39
923.00	397.11
924.00	408.81
925.00	420.52
926.00	416.62
927.00	405.69
928.00	390.09
929.00	393.99
930.00	400.23
931.00	406.47
932.00	387.75
933.00	367.46
934.00	384.63
935.00	399.45
936.00	386.19
937.00	393.21
938.00	386.19
939.00	393.21
940.00	369.02
941.00	376.83
942.00	385.41
943.00	407.25
944.00	422.08
945.00	428.32
946.00	429.10
947.00	421.30
948.00	425.20
949.00	409.59
950.00	407.25
951.00	414.27
952.00	399.45
953.00	370.58
954.00	370.58
955.00	395.55
956.00	425.98
957.00	420.52
958.00	422.86
959.00	421.30
960.00	411.93
961.00	404.91
962.00	422.08
963.00	443.92
964.00	463.43
965.00	444.70
966.00	433.00
967.00	411.15
968.00	406.47
969.00	404.13
970.00	396.33
971.00	392.43
972.00	383.07
973.00	379.95
974.00	404.13
975.00	409.59
976.00	418.96
977.00	374.49
978.00	397.89
979.00	388.53
980.00	408.81
981.00	394.77
982.00	401.01
983.00	408.81
984.00	385.41
985.00	382.29
986.00	363.56
987.00	387.75
988.00	393.99
989.00	420.52
990.00	427.54
991.00	408.03
992.00	385.41
993.00	373.71
994.00	395.55
995.00	403.35
996.00	417.40
997.00	414.27
998.00	390.87
999.00	383.07
1000.00	411.15
1001.00	437.68
1002.00	455.62
1003.00	422.08
1004.00	422.08
1005.00	396.33
1006.00	386.19
1007.00	376.83
1008.00	375.27
1009.00	415.06
1010.00	462.65
1011.00	483.71
1012.00	474.35
1013.00	418.96
1014.00	398.67
1015.00	384.63
1016.00	381.51
1017.00	384.63
1018.00	354.98
1019.00	375.27
1020.00	378.39
1021.00	399.45
1022.00	400.23
1023.00	390.87
1024.00	389.31
1025.00	404.91
1026.00	417.40
1027.00	435.34
1028.00	418.18
1029.00	415.06
1030.00	418.96
1031.00	418.96
1032.00	423.64
1033.00	425.20
1034.00	406.47
1035.00	392.43
1036.00	390.87
1037.00	414.27
1038.00	393.99
1039.00	392.43
1040.00	411.15
1041.00	441.58
1042.00	415.06
1043.00	370.58
1044.00	350.30
1045.00	393.99
1046.00	431.44
1047.00	439.24
1048.00	400.23
1049.00	376.05
1050.00	395.55
1051.00	397.89
1052.00	401.01
1053.00	384.63
1054.00	386.97
1055.00	387.75
1056.00	380.73
1057.00	412.71
1058.00	417.40
1059.00	412.71
1060.00	397.11
1061.00	372.15
1062.00	365.12
1063.00	376.05
1064.00	404.13
1065.00	440.80
1066.00	407.25
1067.00	422.08
1068.00	417.40
1069.00	419.74
1070.00	393.21
1071.00	397.11
1072.00	416.62
1073.00	429.88
1074.00	434.56
1075.00	437.68
1076.00	453.28
1077.00	408.03
1078.00	376.05
1079.00	369.02
1080.00	385.41
1081.00	404.13
1082.00	383.07
1083.00	389.31
1084.00	377.61
1085.00	376.05
1086.00	391.65
1087.00	415.84
1088.00	429.88
1089.00	422.86
1090.00	395.55
1091.00	405.69
1092.00	408.81
1093.00	404.91
1094.00	376.05
1095.00	353.42
1096.00	379.17
1097.00	415.84
1098.00	411.15
1099.00	391.65
1100.00	382.29
1101.00	388.53
1102.00	404.13
1103.00	395.55
1104.00	429.10
1105.00	422.86
1106.00	415.06
1107.00	402.57
1108.00	395.55
1109.00	405.69
1110.00	393.99
1111.00	395.55
1112.00	383.85
1113.00	381.51
1114.00	390.09
1115.00	409.59
1116.00	411.93
1117.00	399.45
1118.00	379.95
1119.00	374.49
1120.00	364.34
1121.00	381.51
1122.00	429.88
1123.00	472.01
1124.00	464.21
1125.00	401.01
1126.00	379.17
1127.00	387.75
1128.00	416.62
1129.00	436.90
1130.00	448.60
1131.00	443.92
1132.00	420.52
1133.00	397.11
1134.00	388.53
1135.00	397.89
1136.00	419.74
1137.00	427.54
1138.00	414.27
1139.00	400.23
1140.00	396.33
1141.00	398.67
1142.00	401.01
1143.00	425.20
1144.00	444.70
1145.00	428.32
1146.00	423.64
1147.00	409.59
1148.00	447.82
1149.00	426.76
1150.00	454.84
1151.00	462.65
1152.00	459.53
1153.00	433.78
1154.00	392.43
1155.00	409.59
1156.00	387.75
1157.00	380.73
1158.00	368.24
1159.00	394.77
1160.00	392.43
1161.00	384.63
1162.00	360.44
1163.00	380.73
1164.00	397.89
1165.00	422.08
1166.00	422.08
1167.00	422.08
1168.00	401.79
1169.00	420.52
1170.00	405.69
1171.00	418.18
1172.00	400.23
1173.00	401.79
1174.00	409.59
1175.00	424.42
1176.00	476.69
1177.00	482.15
1178.00	470.45
1179.00	414.27
1180.00	425.20
1181.00	414.27
1182.00	425.98
1183.00	423.64
1184.00	436.12
1185.00	435.34
1186.00	413.49
1187.00	413.49
1188.00	409.59
1189.00	420.52
1190.00	413.49
1191.00	438.46
1192.00	420.52
1193.00	407.25
1194.00	385.41
1195.00	387.75
1196.00	385.41
1197.00	392.43
1198.00	394.77
1199.00	432.22
1200.00	436.12
1201.00	450.16
1202.00	432.22
1203.00	424.42
1204.00	411.15
1205.00	395.55
1206.00	414.27
1207.00	417.40
1208.00	437.68
1209.00	422.08
1210.00	460.31
1211.00	454.84
1212.00	453.28
1213.00	415.84
1214.00	416.62
1215.00	422.08
1216.00	433.78
1217.00	440.80
1218.00	429.88
1219.00	425.98
1220.00	420.52
1221.00	412.71
1222.00	395.55
1223.00	369.80
1224.00	392.43
1225.00	411.93
1226.00	418.18
1227.00	408.03
1228.00	411.93
1229.00	418.18
1230.00	400.23
1231.00	393.99
1232.00	405.69
1233.00	419.74
1234.00	431.44
1235.00	425.20
1236.00	421.30
1237.00	415.84
1238.00	414.27
1239.00	431.44
1240.00	410.37
1241.00	415.84
1242.00	416.62
1243.00	404.91
1244.00	383.07
1245.00	375.27
1246.00	379.95
1247.00	391.65
1248.00	396.33
1249.00	406.47
1250.00	417.40
1251.00	418.96
1252.00	434.56
1253.00	437.68
1254.00	417.40
1255.00	410.37
1256.00	397.11
1257.00	409.59
1258.00	408.03
1259.00	402.57
1260.00	423.64
1261.00	408.81
1262.00	403.35
1263.00	375.27
1264.00	386.19
1265.00	386.19
1266.00	405.69
1267.00	419.74
1268.00	455.62
1269.00	436.12
1270.00	429.10
1271.00	411.93
1272.00	422.86
1273.00	416.62
1274.00	411.93
1275.00	401.01
1276.00	399.45
1277.00	388.53
1278.00	386.19
1279.00	376.83
1280.00	376.05
1281.00	387.75
1282.00	393.21
1283.00	404.13
1284.00	414.27
1285.00	423.64
1286.00	418.18
1287.00	418.96
1288.00	427.54
1289.00	423.64
1290.00	411.93
1291.00	383.07
1292.00	393.21
1293.00	382.29
1294.00	397.89
1295.00	392.43
1296.00	411.15
1297.00	430.66
1298.00	429.88
1299.00	415.84
1300.00	404.91
1301.00	417.40
1302.00	432.22
1303.00	443.14
1304.00	449.38
1305.00	440.02
1306.00	426.76
1307.00	396.33
1308.00	407.25
1309.00	399.45
1310.00	405.69
1311.00	391.65
1312.00	424.42
1313.00	438.46
1314.00	456.40
1315.00	406.47
1316.00	361.22
1317.00	386.97
1318.00	422.08
1319.00	475.13
1320.00	441.58
1321.00	422.08
1322.00	429.88
1323.00	417.40
1324.00	425.20
1325.00	420.52
1326.00	443.92
1327.00	447.04
1328.00	435.34
1329.00	422.08
1330.00	422.08
1331.00	457.18
1332.00	462.65
1333.00	468.89
1334.00	426.76
1335.00	429.88
1336.00	430.66
1337.00	436.90
1338.00	422.86
1339.00	420.52
1340.00	421.30
1341.00	413.49
1342.00	414.27
1343.00	401.79
1344.00	396.33
1345.00	404.13
1346.00	419.74
1347.00	416.62
1348.00	399.45
1349.00	390.09
1350.00	383.85
1351.00	378.39
1352.00	386.19
1353.00	417.40
1354.00	418.18
1355.00	411.15
1356.00	404.91
1357.00	397.89
1358.00	398.67
1359.00	395.55
1360.00	393.21
1361.00	376.05
1362.00	384.63
1363.00	407.25
1364.00	438.46
1365.00	427.54
1366.00	426.76
1367.00	410.37
1368.00	382.29
1369.00	362.00
1370.00	375.27
1371.00	401.79
1372.00	427.54
1373.00	431.44
1374.00	447.04
1375.00	433.00
1376.00	420.52
1377.00	397.89
1378.00	376.05
1379.00	389.31
1380.00	383.07
1381.00	396.33
1382.00	383.85
1383.00	383.07
1384.00	393.99
1385.00	378.39
1386.00	390.09
1387.00	398.67
1388.00	422.08
1389.00	443.92
1390.00	443.92
1391.00	426.76
1392.00	432.22
1393.00	421.30
1394.00	456.40
1395.00	429.88
1396.00	428.32
1397.00	404.91
1398.00	419.74
1399.00	432.22
1400.00	426.76
1401.00	425.98
1402.00	426.76
1403.00	425.98
1404.00	391.65
1405.00	376.05
1406.00	358.10
1407.00	369.80
1408.00	373.71
1409.00	383.07
1410.00	413.49
1411.00	422.08
1412.00	444.70
1413.00	422.08
1414.00	436.12
1415.00	419.74
1416.00	433.00
1417.00	395.55
1418.00	418.96
1419.00	415.06
1420.00	449.38
1421.00	445.48
1422.00	443.14
1423.00	421.30
1424.00	389.31
1425.00	383.85
1426.00	376.83
1427.00	397.11
1428.00	393.99
1429.00	383.07
1430.00	390.09
1431.00	399.45
1432.00	422.08
1433.00	438.46
1434.00	465.77
1435.00	440.80
1436.00	414.27
1437.00	391.65
1438.00	398.67
1439.00	397.89
1440.00	387.75
1441.00	424.42
1442.00	428.32
1443.00	422.86
1444.00	395.55
1445.00	377.61
1446.00	383.85
1447.00	402.57
1448.00	402.57
1449.00	384.63
1450.00	387.75
1451.00	425.98
1452.00	442.36
1453.00	415.06
1454.00	379.17
1455.00	354.20
1456.00	325.33
1457.00	325.33
1458.00	393.99
1459.00	425.98
1460.00	455.62
1461.00	427.54
1462.00	423.64
1463.00	422.08
1464.00	409.59
1465.00	438.46
1466.00	421.30
1467.00	419.74
1468.00	408.81
1469.00	420.52
1470.00	430.66
1471.00	428.32
1472.00	407.25
1473.00	404.13
1474.00	405.69
1475.00	407.25
1476.00	390.87
1477.00	372.93
1478.00	387.75
1479.00	397.89
1480.00	411.15
1481.00	405.69
1482.00	387.75
1483.00	407.25
1484.00	391.65
1485.00	424.42
1486.00	376.83
1487.00	376.83
1488.00	361.22
1489.00	373.71
1490.00	376.05
1491.00	383.85
1492.00	393.99
1493.00	428.32
1494.00	411.15
1495.00	420.52
1496.00	393.21
1497.00	398.67
1498.00	420.52
1499.00	444.70
1500.00	461.09
1501.00	423.64
1502.00	399.45
1503.00	401.79
1504.00	405.69
1505.00	409.59
1506.00	398.67
1507.00	408.03
1508.00	408.03
1509.00	415.84
1510.00	403.35
1511.00	400.23
1512.00	394.77
1513.00	380.73
1514.00	369.02
1515.00	365.90
1516.00	388.53
1517.00	415.06
1518.00	428.32
1519.00	414.27
1520.00	412.71
1521.00	393.99
1522.00	396.33
1523.00	376.05
1524.00	364.34
1525.00	384.63
1526.00	390.09
1527.00	405.69
1528.00	422.86
1529.00	426.76
1530.00	449.38
1531.00	411.15
1532.00	411.93
1533.00	374.49
1534.00	393.21
1535.00	379.17
1536.00	389.31
1537.00	384.63
1538.00	386.97
1539.00	404.91
1540.00	406.47
1541.00	413.49
1542.00	395.55
1543.00	393.99
1544.00	397.89
1545.00	399.45
1546.00	392.43
1547.00	388.53
1548.00	377.61
1549.00	386.97
1550.00	383.85
1551.00	386.19
1552.00	380.73
1553.00	393.99
1554.00	390.87
1555.00	386.19
1556.00	389.31
1557.00	411.15
1558.00	393.99
1559.00	397.11
1560.00	384.63
1561.00	389.31
1562.00	387.75
1563.00	392.43
1564.00	418.96
1565.00	405.69
1566.00	400.23
1567.00	375.27
1568.00	361.22
1569.00	371.36
1570.00	389.31
1571.00	403.35
1572.00	381.51
1573.00	372.15
1574.00	394.77
1575.00	416.62
1576.00	431.44
1577.00	418.96
1578.00	425.20
1579.00	409.59
1580.00	418.18
1581.00	418.96
1582.00	419.74
1583.00	394.77
1584.00	376.05
1585.00	393.99
1586.00	383.07
1587.00	390.09
1588.00	381.51
1589.00	385.41
1590.00	384.63
1591.00	351.08
1592.00	357.32
1593.00	376.05
1594.00	408.81
1595.00	426.76
1596.00	435.34
1597.00	443.14
1598.00	440.02
1599.00	421.30
1600.00	396.33
1601.00	373.71
1602.00	375.27
1603.00	397.89
1604.00	422.86
1605.00	406.47
1606.00	415.84
1607.00	390.09
1608.00	413.49
1609.00	379.17
1610.00	413.49
1611.00	411.15
1612.00	451.72
1613.00	447.82
1614.00	433.78
1615.00	408.81
1616.00	391.65
1617.00	393.99
1618.00	390.09
1619.00	401.79
1620.00	408.03
1621.00	428.32
1622.00	402.57
1623.00	386.97
1624.00	382.29
1625.00	408.81
1626.00	386.97
1627.00	363.56
1628.00	351.08
1629.00	373.71
1630.00	374.49
1631.00	371.36
1632.00	380.73
1633.00	401.79
1634.00	422.86
1635.00	409.59
1636.00	398.67
1637.00	380.73
1638.00	397.11
1639.00	408.03
1640.00	405.69
1641.00	401.01
1642.00	370.58
1643.00	377.61
1644.00	375.27
1645.00	413.49
1646.00	433.00
1647.00	454.06
1648.00	450.94
1649.00	429.88
1650.00	413.49
1651.00	404.91
1652.00	429.88
1653.00	423.64
1654.00	412.71
1655.00	375.27
1656.00	380.73
1657.00	384.63
1658.00	415.06
1659.00	405.69
1660.00	412.71
1661.00	411.15
1662.00	419.74
1663.00	414.27
1664.00	415.06
1665.00	406.47
1666.00	406.47
1667.00	397.89
1668.00	399.45
1669.00	397.89
1670.00	375.27
1671.00	392.43
1672.00	394.77
1673.00	407.25
1674.00	433.00
1675.00	430.66
1676.00	425.98
1677.00	383.07
1678.00	366.68
1679.00	366.68
1680.00	375.27
1681.00	378.39
1682.00	399.45
1683.00	401.01
1684.00	456.40
1685.00	522.72
1686.00	687.34
1687.00	908.13
1688.00	1135.94
1689.00	1369.99
1690.00	1501.06
1691.00	1522.13
1692.00	1338.79
1693.00	1123.46
1694.00	888.62
1695.00	717.76
1696.00	571.09
1697.00	518.82
1698.00	454.84
1699.00	438.46
1700.00	413.49
1701.00	412.71
1702.00	417.40
1703.00	399.45
1704.00	404.91
1705.00	399.45
1706.00	400.23
1707.00	401.01
1708.00	367.46
1709.00	377.61
1710.00	382.29
1711.00	418.96
1712.00	410.37
1713.00	398.67
1714.00	377.61
1715.00	383.07
1716.00	364.34
1717.00	367.46
1718.00	364.34
1719.00	401.79
1720.00	390.09
1721.00	384.63
1722.00	405.69
1723.00	413.49
1724.00	391.65
1725.00	341.72
1726.00	373.71
1727.00	404.13
1728.00	433.78
1729.00	404.13
1730.00	408.81
1731.00	404.91
1732.00	392.43
1733.00	367.46
1734.00	366.68
1735.00	376.05
1736.00	389.31
1737.00	376.05
1738.00	369.80
1739.00	374.49
1740.00	388.53
1741.00	399.45
1742.00	401.01
1743.00	371.36
1744.00	375.27
1745.00	354.98
1746.00	368.24
1747.00	360.44
1748.00	372.15
1749.00	386.19
1750.00	376.05
1751.00	395.55
1752.00	398.67
1753.00	426.76
1754.00	410.37
1755.00	417.40
1756.00	416.62
1757.00	418.18
1758.00	395.55
1759.00	380.73
1760.00	369.02
1761.00	369.02
1762.00	376.05
1763.00	419.74
1764.00	418.96
1765.00	423.64
1766.00	381.51
1767.00	398.67
1768.00	409.59
1769.00	398.67
1770.00	387.75
1771.00	379.17
1772.00	402.57
1773.00	405.69
1774.00	404.13
1775.00	410.37
1776.00	412.71
1777.00	398.67
1778.00	365.12
1779.00	377.61
1780.00	388.53
1781.00	404.13
1782.00	376.83
1783.00	384.63
1784.00	396.33
1785.00	426.76
1786.00	392.43
1787.00	386.19
1788.00	387.75
1789.00	407.25
1790.00	412.71
1791.00	391.65
1792.00	381.51
1793.00	388.53
1794.00	418.96
1795.00	443.14
1796.00	421.30
1797.00	401.79
1798.00	378.39
1799.00	389.31
1800.00	395.55
1801.00	390.09
1802.00	418.18
1803.00	416.62
1804.00	419.74
1805.00	400.23
1806.00	381.51
1807.00	401.79
1808.00	398.67
1809.00	410.37
1810.00	391.65
1811.00	401.79
1812.00	411.93
1813.00	442.36
1814.00	408.81
1815.00	387.75
1816.00	350.30
1817.00	347.18
1818.00	338.60
1819.00	363.56
1820.00	386.19
1821.00	423.64
1822.00	433.78
1823.00	421.30
1824.00	388.53
1825.00	373.71
1826.00	368.24
1827.00	400.23
1828.00	379.17
1829.00	399.45
1830.00	379.17
1831.00	386.19
1832.00	353.42
1833.00	356.54
1834.00	358.88
1835.00	369.80
1836.00	367.46
1837.00	356.54
1838.00	378.39
1839.00	362.78
1840.00	361.22
1841.00	350.30
1842.00	369.02
1843.00	382.29
1844.00	379.95
1845.00	379.95
1846.00	374.49
1847.00	382.29
1848.00	378.39
1849.00	393.21
1850.00	361.22
1851.00	384.63
1852.00	377.61
1853.00	403.35
1854.00	354.20
1855.00	312.85
1856.00	316.75
1857.00	364.34
1858.00	401.79
1859.00	389.31
1860.00	367.46
1861.00	376.83
1862.00	371.36
1863.00	388.53
1864.00	371.36
1865.00	409.59
1866.00	392.43
1867.00	436.90
1868.00	441.58
1869.00	474.35
1870.00	461.87
1871.00	456.40
1872.00	452.50
1873.00	423.64
1874.00	414.27
1875.00	369.02
1876.00	395.55
1877.00	383.85
1878.00	439.24
1879.00	440.80
1880.00	430.66
1881.00	399.45
1882.00	384.63
1883.00	408.81
1884.00	412.71
1885.00	423.64
1886.00	430.66
1887.00	411.15
1888.00	391.65
1889.00	413.49
1890.00	422.08
1891.00	421.30
1892.00	374.49
1893.00	376.83
1894.00	383.85
1895.00	368.24
1896.00	362.78
1897.00	365.12
1898.00	390.09
1899.00	408.81
1900.00	405.69
1901.00	414.27
1902.00	399.45
1903.00	428.32
1904.00	411.93
1905.00	390.09
1906.00	385.41
1907.00	401.79
1908.00	429.88
1909.00	411.15
1910.00	417.40
1911.00	383.07
1912.00	378.39
1913.00	364.34
1914.00	372.93
1915.00	372.93
1916.00	375.27
1917.00	399.45
1918.00	405.69
1919.00	428.32
1920.00	447.04
1921.00	438.46
1922.00	437.68
1923.00	441.58
1924.00	446.26
1925.00	411.93
1926.00	380.73
1927.00	386.19
1928.00	391.65
1929.00	399.45
1930.00	407.25
1931.00	390.09
1932.00	379.17
1933.00	362.00
1934.00	380.73
1935.00	383.07
1936.00	398.67
1937.00	423.64
1938.00	436.90
1939.00	427.54
1940.00	405.69
1941.00	377.61
1942.00	386.19
1943.00	377.61
1944.00	393.99
1945.00	358.10
1946.00	345.62
1947.00	348.74
1948.00	349.52
1949.00	384.63
1950.00	373.71
1951.00	392.43
1952.00	354.20
1953.00	355.76
1954.00	329.24
1955.00	344.06
1956.00	372.93
1957.00	407.25
1958.00	391.65
1959.00	362.78
1960.00	350.30
1961.00	383.85
1962.00	380.73
1963.00	383.07
1964.00	397.89
1965.00	394.77
1966.00	387.75
1967.00	390.09
1968.00	400.23
1969.00	433.00
1970.00	403.35
1971.00	413.49
1972.00	402.57
1973.00	408.81
1974.00	411.15
1975.00	422.08
1976.00	418.96
1977.00	416.62
1978.00	397.89
1979.00	413.49
1980.00	400.23
1981.00	399.45
1982.00	384.63
1983.00	392.43
1984.00	414.27
1985.00	401.79
1986.00	381.51
1987.00	396.33
1988.00	419.74
1989.00	452.50
1990.00	425.20
1991.00	400.23
1992.00	393.21
1993.00	373.71
1994.00	376.83
1995.00	387.75
1996.00	390.87
1997.00	391.65
1998.00	377.61
1999.00	414.27
2000.00	438.46
2001.00	440.02
2002.00	434.56
2003.00	422.08
2004.00	428.32
2005.00	382.29
2006.00	367.46
2007.00	348.74
2008.00	383.85
2009.00	413.49
2010.00	435.34
2011.00	429.10
2012.00	398.67
2013.00	393.99
2014.00	372.93
2015.00	378.39
2016.00	385.41
2017.00	393.99
2018.00	407.25
2019.00	369.80
2020.00	367.46
2021.00	364.34
2022.00	393.21
2023.00	381.51
2024.00	377.61
2025.00	364.34
2026.00	379.95
2027.00	385.41
2028.00	405.69
2029.00	423.64
2030.00	422.08
2031.00	413.49
2032.00	396.33
2033.00	380.73
2034.00	360.44
2035.00	350.30
2036.00	365.90
2037.00	384.63
2038.00	412.71
2039.00	415.84
2040.00	414.27
2041.00	397.11
2042.00	386.97
2043.00	364.34
2044.00	358.10
2045.00	360.44
2046.00	376.05
2047.00	379.17
>>>>>End Processed Spectral Data<<<<<
