SpectraSuite Data File
++++++++++++++++++++++++++++++++++++
Date: Thu Nov 16 14:27:19 EST 2017
User: cheriyan
Dark Spectrum Present: No
Reference Spectrum Present: No
Number of Sampled Component Spectra: 1
Spectrometers: USB2+H05261
Integration Time (usec): 100000 (USB2+H05261)
Spectra Averaged: 1 (USB2+H05261)
Boxcar Smoothing: 1 (USB2+H05261)
Correct for Electrical Dark: No (USB2+H05261)
Strobe/Lamp Enabled: No (USB2+H05261)
Correct for Detector Non-linearity: No (USB2+H05261)
Correct for Stray Light: No (USB2+H05261)
Number of Pixels in Processed Spectrum: 2048
>>>>>Begin Processed Spectral Data<<<<<
0.00	346.40
1.00	346.40
2.00	289.45
3.00	241.08
4.00	212.99
5.00	231.71
6.00	240.30
7.00	230.15
8.00	234.83
9.00	221.57
10.00	207.53
11.00	228.59
12.00	262.92
13.00	271.50
14.00	234.05
15.00	211.43
16.00	191.92
17.00	190.36
18.00	191.14
19.00	228.59
20.00	252.00
21.00	263.70
22.00	265.26
23.00	276.96
24.00	292.57
25.00	283.98
26.00	305.83
27.00	346.40
28.00	399.45
29.00	405.69
30.00	372.93
31.00	362.00
32.00	364.34
33.00	372.93
34.00	385.41
35.00	386.97
36.00	392.43
37.00	380.73
38.00	376.83
39.00	375.27
40.00	358.88
41.00	367.46
42.00	389.31
43.00	399.45
44.00	399.45
45.00	397.89
46.00	388.53
47.00	376.05
48.00	372.93
49.00	398.67
50.00	404.13
51.00	390.09
52.00	382.29
53.00	379.17
54.00	390.87
55.00	403.35
56.00	407.25
57.00	397.11
58.00	387.75
59.00	405.69
60.00	399.45
61.00	397.89
62.00	364.34
63.00	385.41
64.00	387.75
65.00	422.08
66.00	394.77
67.00	393.21
68.00	365.90
69.00	367.46
70.00	376.05
71.00	408.03
72.00	429.88
73.00	415.06
74.00	371.36
75.00	341.72
76.00	329.24
77.00	329.24
78.00	344.84
79.00	352.64
80.00	388.53
81.00	372.15
82.00	393.21
83.00	379.17
84.00	382.29
85.00	363.56
86.00	354.20
87.00	372.15
88.00	367.46
89.00	369.02
90.00	384.63
91.00	382.29
92.00	414.27
93.00	386.19
94.00	385.41
95.00	354.20
96.00	351.86
97.00	362.78
98.00	364.34
99.00	386.19
100.00	374.49
101.00	358.10
102.00	360.44
103.00	391.65
104.00	405.69
105.00	407.25
106.00	390.87
107.00	383.07
108.00	379.17
109.00	373.71
110.00	403.35
111.00	399.45
112.00	396.33
113.00	373.71
114.00	346.40
115.00	324.55
116.00	336.26
117.00	333.14
118.00	341.72
119.00	347.18
120.00	384.63
121.00	424.42
122.00	427.54
123.00	425.98
124.00	410.37
125.00	386.97
126.00	386.97
127.00	385.41
128.00	400.23
129.00	397.89
130.00	410.37
131.00	421.30
132.00	433.78
133.00	425.98
134.00	392.43
135.00	385.41
136.00	395.55
137.00	392.43
138.00	369.80
139.00	355.76
140.00	360.44
141.00	376.83
142.00	389.31
143.00	379.17
144.00	355.76
145.00	322.99
146.00	344.84
147.00	359.66
148.00	381.51
149.00	390.87
150.00	376.83
151.00	371.36
152.00	371.36
153.00	392.43
154.00	425.98
155.00	420.52
156.00	441.58
157.00	424.42
158.00	409.59
159.00	405.69
160.00	421.30
161.00	441.58
162.00	429.88
163.00	401.79
164.00	411.93
165.00	403.35
166.00	401.79
167.00	386.97
168.00	393.99
169.00	412.71
170.00	394.77
171.00	411.15
172.00	390.09
173.00	380.73
174.00	362.00
175.00	365.12
176.00	408.81
177.00	400.23
178.00	411.93
179.00	395.55
180.00	393.21
181.00	386.97
182.00	379.95
183.00	398.67
184.00	383.07
185.00	368.24
186.00	375.27
187.00	376.05
188.00	391.65
189.00	351.86
190.00	358.88
191.00	349.52
192.00	357.32
193.00	367.46
194.00	386.97
195.00	397.11
196.00	397.11
197.00	376.83
198.00	385.41
199.00	375.27
200.00	374.49
201.00	370.58
202.00	344.06
203.00	348.74
204.00	340.94
205.00	369.02
206.00	372.93
207.00	376.05
208.00	368.24
209.00	376.05
210.00	383.85
211.00	408.81
212.00	418.18
213.00	395.55
214.00	376.83
215.00	367.46
216.00	376.83
217.00	397.89
218.00	386.19
219.00	379.95
220.00	372.15
221.00	391.65
222.00	408.81
223.00	401.01
224.00	376.05
225.00	376.05
226.00	378.39
227.00	385.41
228.00	390.09
229.00	404.91
230.00	401.79
231.00	396.33
232.00	369.02
233.00	365.12
234.00	352.64
235.00	350.30
236.00	358.10
237.00	349.52
238.00	352.64
239.00	360.44
240.00	382.29
241.00	395.55
242.00	428.32
243.00	451.72
244.00	430.66
245.00	397.89
246.00	354.20
247.00	354.98
248.00	366.68
249.00	377.61
250.00	391.65
251.00	375.27
252.00	373.71
253.00	387.75
254.00	386.19
255.00	401.01
256.00	401.01
257.00	401.01
258.00	382.29
259.00	369.80
260.00	359.66
261.00	358.10
262.00	369.02
263.00	401.79
264.00	398.67
265.00	372.93
266.00	347.18
267.00	376.05
268.00	376.05
269.00	388.53
270.00	370.58
271.00	390.09
272.00	383.85
273.00	398.67
274.00	403.35
275.00	395.55
276.00	386.19
277.00	383.85
278.00	425.20
279.00	420.52
280.00	423.64
281.00	386.19
282.00	385.41
283.00	379.17
284.00	393.21
285.00	421.30
286.00	439.24
287.00	412.71
288.00	373.71
289.00	372.93
290.00	390.87
291.00	401.79
292.00	372.93
293.00	384.63
294.00	399.45
295.00	394.77
296.00	401.79
297.00	395.55
298.00	415.84
299.00	415.06
300.00	406.47
301.00	390.87
302.00	381.51
303.00	402.57
304.00	411.93
305.00	418.96
306.00	399.45
307.00	414.27
308.00	420.52
309.00	408.03
310.00	389.31
311.00	379.95
312.00	402.57
313.00	405.69
314.00	392.43
315.00	399.45
316.00	390.09
317.00	411.93
318.00	421.30
319.00	430.66
320.00	415.06
321.00	399.45
322.00	397.11
323.00	384.63
324.00	372.15
325.00	392.43
326.00	403.35
327.00	417.40
328.00	374.49
329.00	380.73
330.00	372.15
331.00	388.53
332.00	370.58
333.00	338.60
334.00	338.60
335.00	373.71
336.00	411.93
337.00	450.16
338.00	422.86
339.00	405.69
340.00	364.34
341.00	378.39
342.00	400.23
343.00	388.53
344.00	393.21
345.00	360.44
346.00	368.24
347.00	349.52
348.00	376.83
349.00	372.15
350.00	353.42
351.00	352.64
352.00	389.31
353.00	429.10
354.00	443.92
355.00	433.78
356.00	436.90
357.00	408.03
358.00	401.79
359.00	382.29
360.00	401.01
361.00	408.03
362.00	415.06
363.00	410.37
364.00	390.87
365.00	386.97
366.00	368.24
367.00	380.73
368.00	398.67
369.00	411.93
370.00	407.25
371.00	394.77
372.00	393.99
373.00	417.40
374.00	395.55
375.00	403.35
376.00	381.51
377.00	393.99
378.00	382.29
379.00	383.85
380.00	385.41
381.00	397.11
382.00	402.57
383.00	383.85
384.00	382.29
385.00	396.33
386.00	405.69
387.00	379.95
388.00	363.56
389.00	375.27
390.00	404.91
391.00	381.51
392.00	371.36
393.00	356.54
394.00	393.99
395.00	400.23
396.00	420.52
397.00	418.96
398.00	408.03
399.00	393.99
400.00	386.97
401.00	383.07
402.00	354.98
403.00	364.34
404.00	387.75
405.00	416.62
406.00	388.53
407.00	357.32
408.00	337.82
409.00	344.84
410.00	369.80
411.00	369.80
412.00	353.42
413.00	349.52
414.00	360.44
415.00	384.63
416.00	386.19
417.00	422.08
418.00	421.30
419.00	430.66
420.00	388.53
421.00	405.69
422.00	404.91
423.00	425.98
424.00	393.99
425.00	401.79
426.00	384.63
427.00	386.97
428.00	358.88
429.00	354.98
430.00	364.34
431.00	379.17
432.00	405.69
433.00	377.61
434.00	367.46
435.00	337.82
436.00	352.64
437.00	337.04
438.00	358.88
439.00	357.32
440.00	385.41
441.00	379.17
442.00	398.67
443.00	402.57
444.00	401.01
445.00	385.41
446.00	389.31
447.00	373.71
448.00	379.17
449.00	366.68
450.00	386.19
451.00	385.41
452.00	408.03
453.00	393.21
454.00	383.85
455.00	347.18
456.00	364.34
457.00	361.22
458.00	354.20
459.00	326.11
460.00	337.82
461.00	372.15
462.00	379.17
463.00	393.99
464.00	378.39
465.00	410.37
466.00	428.32
467.00	423.64
468.00	418.18
469.00	403.35
470.00	422.08
471.00	408.03
472.00	400.23
473.00	393.99
474.00	425.98
475.00	416.62
476.00	411.15
477.00	363.56
478.00	348.74
479.00	373.71
480.00	405.69
481.00	429.88
482.00	373.71
483.00	365.90
484.00	375.27
485.00	387.75
486.00	390.87
487.00	377.61
488.00	391.65
489.00	386.19
490.00	391.65
491.00	393.21
492.00	401.79
493.00	398.67
494.00	415.06
495.00	419.74
496.00	401.01
497.00	380.73
498.00	350.30
499.00	368.24
500.00	389.31
501.00	427.54
502.00	436.90
503.00	428.32
504.00	415.84
505.00	391.65
506.00	401.79
507.00	385.41
508.00	409.59
509.00	399.45
510.00	401.01
511.00	411.15
512.00	413.49
513.00	427.54
514.00	401.01
515.00	372.15
516.00	372.15
517.00	390.09
518.00	421.30
519.00	393.21
520.00	382.29
521.00	386.19
522.00	399.45
523.00	398.67
524.00	382.29
525.00	397.11
526.00	397.89
527.00	392.43
528.00	401.01
529.00	402.57
530.00	411.15
531.00	397.89
532.00	406.47
533.00	421.30
534.00	435.34
535.00	438.46
536.00	412.71
537.00	409.59
538.00	397.89
539.00	417.40
540.00	424.42
541.00	416.62
542.00	401.79
543.00	393.99
544.00	428.32
545.00	425.98
546.00	397.11
547.00	369.80
548.00	379.17
549.00	396.33
550.00	401.79
551.00	390.87
552.00	386.19
553.00	374.49
554.00	372.15
555.00	369.80
556.00	370.58
557.00	362.00
558.00	380.73
559.00	383.07
560.00	385.41
561.00	372.15
562.00	379.95
563.00	387.75
564.00	374.49
565.00	351.08
566.00	365.90
567.00	393.99
568.00	424.42
569.00	422.86
570.00	421.30
571.00	413.49
572.00	409.59
573.00	425.20
574.00	410.37
575.00	389.31
576.00	360.44
577.00	391.65
578.00	405.69
579.00	408.81
580.00	369.80
581.00	361.22
582.00	366.68
583.00	379.17
584.00	407.25
585.00	407.25
586.00	426.76
587.00	402.57
588.00	399.45
589.00	384.63
590.00	379.17
591.00	376.05
592.00	395.55
593.00	401.01
594.00	393.99
595.00	384.63
596.00	370.58
597.00	364.34
598.00	376.83
599.00	420.52
600.00	457.18
601.00	433.78
602.00	422.86
603.00	383.07
604.00	363.56
605.00	339.38
606.00	371.36
607.00	397.89
608.00	447.82
609.00	444.70
610.00	439.24
611.00	421.30
612.00	420.52
613.00	404.13
614.00	378.39
615.00	371.36
616.00	362.00
617.00	383.85
618.00	381.51
619.00	399.45
620.00	383.85
621.00	364.34
622.00	369.02
623.00	362.00
624.00	372.15
625.00	380.73
626.00	365.90
627.00	345.62
628.00	348.74
629.00	383.07
630.00	388.53
631.00	376.83
632.00	369.80
633.00	386.97
634.00	386.97
635.00	392.43
636.00	431.44
637.00	430.66
638.00	447.82
639.00	410.37
640.00	427.54
641.00	397.89
642.00	397.89
643.00	386.97
644.00	410.37
645.00	427.54
646.00	411.15
647.00	404.13
648.00	365.12
649.00	405.69
650.00	401.01
651.00	425.20
652.00	399.45
653.00	372.15
654.00	425.20
655.00	442.36
656.00	475.91
657.00	423.64
658.00	421.30
659.00	400.23
660.00	390.09
661.00	359.66
662.00	390.09
663.00	393.99
664.00	395.55
665.00	371.36
666.00	349.52
667.00	352.64
668.00	365.12
669.00	404.13
670.00	392.43
671.00	367.46
672.00	342.50
673.00	390.09
674.00	404.91
675.00	415.06
676.00	387.75
677.00	383.85
678.00	378.39
679.00	395.55
680.00	402.57
681.00	411.93
682.00	407.25
683.00	391.65
684.00	391.65
685.00	386.97
686.00	421.30
687.00	406.47
688.00	383.07
689.00	371.36
690.00	392.43
691.00	425.20
692.00	422.08
693.00	416.62
694.00	383.07
695.00	385.41
696.00	380.73
697.00	395.55
698.00	388.53
699.00	389.31
700.00	401.79
701.00	387.75
702.00	356.54
703.00	328.46
704.00	349.52
705.00	395.55
706.00	410.37
707.00	418.96
708.00	403.35
709.00	398.67
710.00	380.73
711.00	386.97
712.00	397.89
713.00	399.45
714.00	390.87
715.00	415.06
716.00	405.69
717.00	431.44
718.00	436.12
719.00	432.22
720.00	422.86
721.00	387.75
722.00	416.62
723.00	390.09
724.00	384.63
725.00	392.43
726.00	404.13
727.00	436.12
728.00	402.57
729.00	433.00
730.00	417.40
731.00	438.46
732.00	408.81
733.00	395.55
734.00	380.73
735.00	403.35
736.00	411.93
737.00	393.99
738.00	383.07
739.00	377.61
740.00	372.15
741.00	369.02
742.00	404.13
743.00	461.09
744.00	440.80
745.00	412.71
746.00	390.09
747.00	387.75
748.00	353.42
749.00	323.77
750.00	341.72
751.00	385.41
752.00	393.99
753.00	379.17
754.00	370.58
755.00	368.24
756.00	396.33
757.00	405.69
758.00	408.81
759.00	393.99
760.00	370.58
761.00	356.54
762.00	369.80
763.00	376.05
764.00	418.96
765.00	411.93
766.00	415.84
767.00	397.89
768.00	396.33
769.00	380.73
770.00	376.83
771.00	376.83
772.00	386.97
773.00	386.97
774.00	379.17
775.00	369.80
776.00	365.12
777.00	363.56
778.00	414.27
779.00	442.36
780.00	467.33
781.00	436.90
782.00	414.27
783.00	482.93
784.00	468.11
785.00	494.63
786.00	390.87
787.00	367.46
788.00	352.64
789.00	366.68
790.00	411.15
791.00	397.89
792.00	412.71
793.00	423.64
794.00	436.12
795.00	397.89
796.00	355.76
797.00	346.40
798.00	373.71
799.00	390.09
800.00	382.29
801.00	358.10
802.00	376.05
803.00	378.39
804.00	413.49
805.00	417.40
806.00	415.06
807.00	387.75
808.00	344.84
809.00	375.27
810.00	419.74
811.00	436.90
812.00	418.18
813.00	392.43
814.00	381.51
815.00	385.41
816.00	353.42
817.00	362.00
818.00	354.20
819.00	372.15
820.00	372.93
821.00	375.27
822.00	384.63
823.00	373.71
824.00	393.99
825.00	400.23
826.00	428.32
827.00	423.64
828.00	416.62
829.00	399.45
830.00	399.45
831.00	401.79
832.00	402.57
833.00	408.81
834.00	415.06
835.00	415.84
836.00	405.69
837.00	390.09
838.00	408.03
839.00	377.61
840.00	397.11
841.00	369.02
842.00	398.67
843.00	401.01
844.00	426.76
845.00	408.81
846.00	383.07
847.00	371.36
848.00	394.77
849.00	411.15
850.00	418.18
851.00	417.40
852.00	397.89
853.00	371.36
854.00	332.36
855.00	340.16
856.00	354.98
857.00	383.85
858.00	379.95
859.00	393.21
860.00	376.83
861.00	403.35
862.00	390.87
863.00	431.44
864.00	411.93
865.00	412.71
866.00	386.19
867.00	380.73
868.00	372.15
869.00	385.41
870.00	391.65
871.00	409.59
872.00	386.97
873.00	386.97
874.00	375.27
875.00	386.97
876.00	389.31
877.00	397.89
878.00	424.42
879.00	408.03
880.00	418.96
881.00	390.87
882.00	444.70
883.00	451.72
884.00	456.40
885.00	433.78
886.00	422.86
887.00	427.54
888.00	418.96
889.00	424.42
890.00	395.55
891.00	369.02
892.00	352.64
893.00	375.27
894.00	374.49
895.00	384.63
896.00	373.71
897.00	383.07
898.00	368.24
899.00	369.02
900.00	366.68
901.00	381.51
902.00	397.11
903.00	433.78
904.00	408.81
905.00	394.77
906.00	379.17
907.00	398.67
908.00	386.97
909.00	710.74
910.00	705.28
911.00	710.74
912.00	391.65
913.00	403.35
914.00	382.29
915.00	372.15
916.00	351.08
917.00	399.45
918.00	396.33
919.00	401.79
920.00	397.89
921.00	401.01
922.00	397.89
923.00	391.65
924.00	395.55
925.00	415.84
926.00	401.79
927.00	400.23
928.00	374.49
929.00	388.53
930.00	396.33
931.00	412.71
932.00	392.43
933.00	387.75
934.00	379.95
935.00	405.69
936.00	406.47
937.00	427.54
938.00	422.86
939.00	408.03
940.00	379.95
941.00	348.74
942.00	360.44
943.00	369.80
944.00	396.33
945.00	376.05
946.00	376.05
947.00	372.15
948.00	372.93
949.00	400.23
950.00	420.52
951.00	461.09
952.00	440.80
953.00	428.32
954.00	397.11
955.00	424.42
956.00	407.25
957.00	405.69
958.00	376.83
959.00	380.73
960.00	392.43
961.00	393.21
962.00	401.01
963.00	390.09
964.00	376.83
965.00	379.95
966.00	390.09
967.00	412.71
968.00	393.21
969.00	384.63
970.00	369.80
971.00	407.25
972.00	395.55
973.00	405.69
974.00	362.00
975.00	379.17
976.00	378.39
977.00	393.99
978.00	384.63
979.00	392.43
980.00	380.73
981.00	373.71
982.00	351.08
983.00	369.80
984.00	378.39
985.00	386.19
986.00	367.46
987.00	385.41
988.00	412.71
989.00	425.20
990.00	418.18
991.00	398.67
992.00	380.73
993.00	367.46
994.00	351.08
995.00	356.54
996.00	368.24
997.00	385.41
998.00	392.43
999.00	401.79
1000.00	411.93
1001.00	440.80
1002.00	429.88
1003.00	401.79
1004.00	400.23
1005.00	412.71
1006.00	429.10
1007.00	423.64
1008.00	419.74
1009.00	430.66
1010.00	422.08
1011.00	425.20
1012.00	413.49
1013.00	425.20
1014.00	411.15
1015.00	422.86
1016.00	429.10
1017.00	415.84
1018.00	376.83
1019.00	356.54
1020.00	372.93
1021.00	389.31
1022.00	395.55
1023.00	406.47
1024.00	392.43
1025.00	380.73
1026.00	386.19
1027.00	426.76
1028.00	415.84
1029.00	363.56
1030.00	365.90
1031.00	393.21
1032.00	431.44
1033.00	415.84
1034.00	418.18
1035.00	422.86
1036.00	401.79
1037.00	390.87
1038.00	376.05
1039.00	409.59
1040.00	426.76
1041.00	424.42
1042.00	411.15
1043.00	399.45
1044.00	417.40
1045.00	433.78
1046.00	429.10
1047.00	404.91
1048.00	362.78
1049.00	356.54
1050.00	364.34
1051.00	383.85
1052.00	369.80
1053.00	367.46
1054.00	368.24
1055.00	374.49
1056.00	359.66
1057.00	372.15
1058.00	393.99
1059.00	431.44
1060.00	427.54
1061.00	405.69
1062.00	377.61
1063.00	387.75
1064.00	405.69
1065.00	416.62
1066.00	418.96
1067.00	409.59
1068.00	405.69
1069.00	368.24
1070.00	364.34
1071.00	346.40
1072.00	348.74
1073.00	345.62
1074.00	369.02
1075.00	390.09
1076.00	395.55
1077.00	386.97
1078.00	401.79
1079.00	433.78
1080.00	458.75
1081.00	434.56
1082.00	386.97
1083.00	366.68
1084.00	362.78
1085.00	394.77
1086.00	412.71
1087.00	419.74
1088.00	405.69
1089.00	378.39
1090.00	373.71
1091.00	372.15
1092.00	373.71
1093.00	357.32
1094.00	371.36
1095.00	376.83
1096.00	376.83
1097.00	386.97
1098.00	384.63
1099.00	414.27
1100.00	396.33
1101.00	398.67
1102.00	389.31
1103.00	396.33
1104.00	393.99
1105.00	387.75
1106.00	375.27
1107.00	372.93
1108.00	366.68
1109.00	357.32
1110.00	356.54
1111.00	371.36
1112.00	366.68
1113.00	375.27
1114.00	374.49
1115.00	413.49
1116.00	403.35
1117.00	406.47
1118.00	383.85
1119.00	387.75
1120.00	383.07
1121.00	385.41
1122.00	407.25
1123.00	398.67
1124.00	406.47
1125.00	397.11
1126.00	415.06
1127.00	402.57
1128.00	391.65
1129.00	381.51
1130.00	410.37
1131.00	415.06
1132.00	399.45
1133.00	383.85
1134.00	415.06
1135.00	420.52
1136.00	424.42
1137.00	426.76
1138.00	431.44
1139.00	396.33
1140.00	379.95
1141.00	403.35
1142.00	416.62
1143.00	411.15
1144.00	411.15
1145.00	440.80
1146.00	429.10
1147.00	397.11
1148.00	404.91
1149.00	433.78
1150.00	461.09
1151.00	427.54
1152.00	429.88
1153.00	390.09
1154.00	367.46
1155.00	331.58
1156.00	355.76
1157.00	368.24
1158.00	400.23
1159.00	406.47
1160.00	422.08
1161.00	386.97
1162.00	389.31
1163.00	383.07
1164.00	426.76
1165.00	432.22
1166.00	443.14
1167.00	423.64
1168.00	422.86
1169.00	411.15
1170.00	397.11
1171.00	380.73
1172.00	385.41
1173.00	406.47
1174.00	396.33
1175.00	401.01
1176.00	390.09
1177.00	387.75
1178.00	361.22
1179.00	357.32
1180.00	372.15
1181.00	393.99
1182.00	408.81
1183.00	403.35
1184.00	408.03
1185.00	401.79
1186.00	434.56
1187.00	446.26
1188.00	429.10
1189.00	412.71
1190.00	400.23
1191.00	418.18
1192.00	395.55
1193.00	382.29
1194.00	370.58
1195.00	381.51
1196.00	384.63
1197.00	388.53
1198.00	380.73
1199.00	401.79
1200.00	409.59
1201.00	447.04
1202.00	446.26
1203.00	422.08
1204.00	382.29
1205.00	360.44
1206.00	349.52
1207.00	373.71
1208.00	369.02
1209.00	372.93
1210.00	341.72
1211.00	375.27
1212.00	401.79
1213.00	407.25
1214.00	400.23
1215.00	413.49
1216.00	433.00
1217.00	415.84
1218.00	390.09
1219.00	388.53
1220.00	388.53
1221.00	355.76
1222.00	334.70
1223.00	348.74
1224.00	398.67
1225.00	419.74
1226.00	416.62
1227.00	401.01
1228.00	401.79
1229.00	408.03
1230.00	435.34
1231.00	447.82
1232.00	450.16
1233.00	411.93
1234.00	422.08
1235.00	419.74
1236.00	463.43
1237.00	416.62
1238.00	375.27
1239.00	332.36
1240.00	383.07
1241.00	424.42
1242.00	440.80
1243.00	415.06
1244.00	397.89
1245.00	407.25
1246.00	406.47
1247.00	404.91
1248.00	372.93
1249.00	382.29
1250.00	398.67
1251.00	408.03
1252.00	390.09
1253.00	372.15
1254.00	375.27
1255.00	397.11
1256.00	393.99
1257.00	403.35
1258.00	378.39
1259.00	399.45
1260.00	417.40
1261.00	454.06
1262.00	447.82
1263.00	451.72
1264.00	404.91
1265.00	370.58
1266.00	330.02
1267.00	351.08
1268.00	379.95
1269.00	393.99
1270.00	428.32
1271.00	417.40
1272.00	390.09
1273.00	334.70
1274.00	331.58
1275.00	344.84
1276.00	372.15
1277.00	365.12
1278.00	390.09
1279.00	359.66
1280.00	368.24
1281.00	355.76
1282.00	386.19
1283.00	403.35
1284.00	409.59
1285.00	386.97
1286.00	378.39
1287.00	363.56
1288.00	408.03
1289.00	408.81
1290.00	419.74
1291.00	384.63
1292.00	392.43
1293.00	406.47
1294.00	411.15
1295.00	411.93
1296.00	393.99
1297.00	401.01
1298.00	400.23
1299.00	415.84
1300.00	405.69
1301.00	383.85
1302.00	337.82
1303.00	358.10
1304.00	366.68
1305.00	411.93
1306.00	399.45
1307.00	431.44
1308.00	433.00
1309.00	438.46
1310.00	419.74
1311.00	407.25
1312.00	399.45
1313.00	390.87
1314.00	416.62
1315.00	428.32
1316.00	429.10
1317.00	400.23
1318.00	365.12
1319.00	366.68
1320.00	376.05
1321.00	374.49
1322.00	380.73
1323.00	379.17
1324.00	397.11
1325.00	381.51
1326.00	396.33
1327.00	390.09
1328.00	394.77
1329.00	367.46
1330.00	369.80
1331.00	397.89
1332.00	413.49
1333.00	422.08
1334.00	380.73
1335.00	386.97
1336.00	390.87
1337.00	407.25
1338.00	387.75
1339.00	383.85
1340.00	386.19
1341.00	386.97
1342.00	370.58
1343.00	368.24
1344.00	362.78
1345.00	404.13
1346.00	408.03
1347.00	447.04
1348.00	419.74
1349.00	415.84
1350.00	413.49
1351.00	420.52
1352.00	417.40
1353.00	396.33
1354.00	386.97
1355.00	398.67
1356.00	394.77
1357.00	397.89
1358.00	376.83
1359.00	370.58
1360.00	368.24
1361.00	387.75
1362.00	388.53
1363.00	386.19
1364.00	391.65
1365.00	407.25
1366.00	386.19
1367.00	372.15
1368.00	381.51
1369.00	401.01
1370.00	385.41
1371.00	395.55
1372.00	409.59
1373.00	423.64
1374.00	414.27
1375.00	406.47
1376.00	393.99
1377.00	382.29
1378.00	388.53
1379.00	384.63
1380.00	381.51
1381.00	377.61
1382.00	389.31
1383.00	386.97
1384.00	378.39
1385.00	385.41
1386.00	395.55
1387.00	394.77
1388.00	389.31
1389.00	386.97
1390.00	387.75
1391.00	399.45
1392.00	396.33
1393.00	409.59
1394.00	397.11
1395.00	404.13
1396.00	408.81
1397.00	429.10
1398.00	397.11
1399.00	402.57
1400.00	401.79
1401.00	424.42
1402.00	400.23
1403.00	382.29
1404.00	376.05
1405.00	386.19
1406.00	397.89
1407.00	391.65
1408.00	404.91
1409.00	381.51
1410.00	377.61
1411.00	362.00
1412.00	408.81
1413.00	422.86
1414.00	440.02
1415.00	417.40
1416.00	418.18
1417.00	413.49
1418.00	412.71
1419.00	394.77
1420.00	390.87
1421.00	397.11
1422.00	425.20
1423.00	409.59
1424.00	400.23
1425.00	412.71
1426.00	435.34
1427.00	440.80
1428.00	405.69
1429.00	384.63
1430.00	362.00
1431.00	347.96
1432.00	362.78
1433.00	369.02
1434.00	405.69
1435.00	383.07
1436.00	397.11
1437.00	372.93
1438.00	392.43
1439.00	374.49
1440.00	401.79
1441.00	416.62
1442.00	423.64
1443.00	403.35
1444.00	377.61
1445.00	362.00
1446.00	339.38
1447.00	341.72
1448.00	370.58
1449.00	380.73
1450.00	388.53
1451.00	380.73
1452.00	401.79
1453.00	393.99
1454.00	414.27
1455.00	411.15
1456.00	417.40
1457.00	406.47
1458.00	435.34
1459.00	426.76
1460.00	415.06
1461.00	401.79
1462.00	393.21
1463.00	406.47
1464.00	394.77
1465.00	403.35
1466.00	386.97
1467.00	394.77
1468.00	399.45
1469.00	411.15
1470.00	386.19
1471.00	376.83
1472.00	379.17
1473.00	389.31
1474.00	389.31
1475.00	364.34
1476.00	355.76
1477.00	391.65
1478.00	423.64
1479.00	436.90
1480.00	421.30
1481.00	397.89
1482.00	397.11
1483.00	377.61
1484.00	388.53
1485.00	415.84
1486.00	425.98
1487.00	410.37
1488.00	376.83
1489.00	375.27
1490.00	384.63
1491.00	406.47
1492.00	429.88
1493.00	437.68
1494.00	415.84
1495.00	397.11
1496.00	408.03
1497.00	419.74
1498.00	413.49
1499.00	407.25
1500.00	383.07
1501.00	360.44
1502.00	348.74
1503.00	368.24
1504.00	404.91
1505.00	415.84
1506.00	408.81
1507.00	389.31
1508.00	389.31
1509.00	383.85
1510.00	379.95
1511.00	363.56
1512.00	383.85
1513.00	408.81
1514.00	414.27
1515.00	395.55
1516.00	408.81
1517.00	401.79
1518.00	386.97
1519.00	333.92
1520.00	345.62
1521.00	365.90
1522.00	404.91
1523.00	400.23
1524.00	393.21
1525.00	406.47
1526.00	417.40
1527.00	433.00
1528.00	399.45
1529.00	409.59
1530.00	396.33
1531.00	404.91
1532.00	379.17
1533.00	399.45
1534.00	406.47
1535.00	424.42
1536.00	393.21
1537.00	391.65
1538.00	400.23
1539.00	401.01
1540.00	401.79
1541.00	392.43
1542.00	401.01
1543.00	397.11
1544.00	394.77
1545.00	411.15
1546.00	388.53
1547.00	388.53
1548.00	370.58
1549.00	389.31
1550.00	385.41
1551.00	383.07
1552.00	387.75
1553.00	392.43
1554.00	409.59
1555.00	422.86
1556.00	403.35
1557.00	388.53
1558.00	383.85
1559.00	382.29
1560.00	390.87
1561.00	374.49
1562.00	379.95
1563.00	381.51
1564.00	391.65
1565.00	420.52
1566.00	429.88
1567.00	406.47
1568.00	397.11
1569.00	376.83
1570.00	409.59
1571.00	390.87
1572.00	383.07
1573.00	365.90
1574.00	376.05
1575.00	404.91
1576.00	421.30
1577.00	402.57
1578.00	379.17
1579.00	370.58
1580.00	395.55
1581.00	418.18
1582.00	401.79
1583.00	383.07
1584.00	365.90
1585.00	386.97
1586.00	391.65
1587.00	404.91
1588.00	393.99
1589.00	381.51
1590.00	368.24
1591.00	348.74
1592.00	357.32
1593.00	356.54
1594.00	375.27
1595.00	397.11
1596.00	411.93
1597.00	433.00
1598.00	415.06
1599.00	411.15
1600.00	369.02
1601.00	372.93
1602.00	362.00
1603.00	397.89
1604.00	391.65
1605.00	414.27
1606.00	400.23
1607.00	403.35
1608.00	374.49
1609.00	379.95
1610.00	390.09
1611.00	397.89
1612.00	361.22
1613.00	393.21
1614.00	393.21
1615.00	406.47
1616.00	361.22
1617.00	353.42
1618.00	397.11
1619.00	391.65
1620.00	412.71
1621.00	367.46
1622.00	379.17
1623.00	379.95
1624.00	421.30
1625.00	454.06
1626.00	454.06
1627.00	422.86
1628.00	393.99
1629.00	386.19
1630.00	372.93
1631.00	376.83
1632.00	390.87
1633.00	410.37
1634.00	406.47
1635.00	390.87
1636.00	397.89
1637.00	386.97
1638.00	383.85
1639.00	372.15
1640.00	371.36
1641.00	363.56
1642.00	354.98
1643.00	372.93
1644.00	380.73
1645.00	382.29
1646.00	364.34
1647.00	365.12
1648.00	369.80
1649.00	379.95
1650.00	379.17
1651.00	371.36
1652.00	376.83
1653.00	404.91
1654.00	411.93
1655.00	391.65
1656.00	356.54
1657.00	346.40
1658.00	371.36
1659.00	378.39
1660.00	404.91
1661.00	397.11
1662.00	422.08
1663.00	412.71
1664.00	421.30
1665.00	390.87
1666.00	394.77
1667.00	404.13
1668.00	397.89
1669.00	395.55
1670.00	377.61
1671.00	403.35
1672.00	413.49
1673.00	399.45
1674.00	363.56
1675.00	333.92
1676.00	355.76
1677.00	371.36
1678.00	393.99
1679.00	389.31
1680.00	407.25
1681.00	383.07
1682.00	378.39
1683.00	388.53
1684.00	401.79
1685.00	418.96
1686.00	440.80
1687.00	487.61
1688.00	566.41
1689.00	605.42
1690.00	667.05
1691.00	663.15
1692.00	606.20
1693.00	527.40
1694.00	471.23
1695.00	432.22
1696.00	424.42
1697.00	384.63
1698.00	416.62
1699.00	404.13
1700.00	390.87
1701.00	384.63
1702.00	387.75
1703.00	416.62
1704.00	376.83
1705.00	388.53
1706.00	360.44
1707.00	391.65
1708.00	354.98
1709.00	359.66
1710.00	367.46
1711.00	393.21
1712.00	417.40
1713.00	438.46
1714.00	450.94
1715.00	434.56
1716.00	394.77
1717.00	395.55
1718.00	423.64
1719.00	439.24
1720.00	408.03
1721.00	392.43
1722.00	409.59
1723.00	427.54
1724.00	401.01
1725.00	384.63
1726.00	376.83
1727.00	408.03
1728.00	368.24
1729.00	376.83
1730.00	361.22
1731.00	392.43
1732.00	391.65
1733.00	404.91
1734.00	410.37
1735.00	411.93
1736.00	390.87
1737.00	390.09
1738.00	373.71
1739.00	359.66
1740.00	362.00
1741.00	377.61
1742.00	376.05
1743.00	361.22
1744.00	337.82
1745.00	361.22
1746.00	368.24
1747.00	386.97
1748.00	381.51
1749.00	379.17
1750.00	376.05
1751.00	369.80
1752.00	354.98
1753.00	337.04
1754.00	358.10
1755.00	356.54
1756.00	390.87
1757.00	390.09
1758.00	408.81
1759.00	398.67
1760.00	383.07
1761.00	397.89
1762.00	388.53
1763.00	410.37
1764.00	383.85
1765.00	393.99
1766.00	358.88
1767.00	343.28
1768.00	330.02
1769.00	365.12
1770.00	419.74
1771.00	427.54
1772.00	425.20
1773.00	421.30
1774.00	442.36
1775.00	443.92
1776.00	424.42
1777.00	419.74
1778.00	413.49
1779.00	406.47
1780.00	386.19
1781.00	398.67
1782.00	405.69
1783.00	429.88
1784.00	405.69
1785.00	391.65
1786.00	361.22
1787.00	355.76
1788.00	349.52
1789.00	373.71
1790.00	390.87
1791.00	415.84
1792.00	409.59
1793.00	394.77
1794.00	393.21
1795.00	389.31
1796.00	428.32
1797.00	422.86
1798.00	433.00
1799.00	393.21
1800.00	394.77
1801.00	391.65
1802.00	391.65
1803.00	376.83
1804.00	347.18
1805.00	351.08
1806.00	365.12
1807.00	366.68
1808.00	364.34
1809.00	354.98
1810.00	371.36
1811.00	370.58
1812.00	360.44
1813.00	365.90
1814.00	362.00
1815.00	397.89
1816.00	393.21
1817.00	409.59
1818.00	417.40
1819.00	402.57
1820.00	373.71
1821.00	347.18
1822.00	346.40
1823.00	381.51
1824.00	369.02
1825.00	372.93
1826.00	372.93
1827.00	391.65
1828.00	415.84
1829.00	401.79
1830.00	384.63
1831.00	362.78
1832.00	374.49
1833.00	383.07
1834.00	399.45
1835.00	371.36
1836.00	380.73
1837.00	386.19
1838.00	400.23
1839.00	404.13
1840.00	403.35
1841.00	409.59
1842.00	443.14
1843.00	443.92
1844.00	425.98
1845.00	350.30
1846.00	344.84
1847.00	354.20
1848.00	388.53
1849.00	393.21
1850.00	389.31
1851.00	380.73
1852.00	366.68
1853.00	352.64
1854.00	364.34
1855.00	370.58
1856.00	386.97
1857.00	402.57
1858.00	406.47
1859.00	391.65
1860.00	380.73
1861.00	379.17
1862.00	397.89
1863.00	404.13
1864.00	387.75
1865.00	406.47
1866.00	410.37
1867.00	405.69
1868.00	388.53
1869.00	372.93
1870.00	376.83
1871.00	388.53
1872.00	398.67
1873.00	392.43
1874.00	386.97
1875.00	369.02
1876.00	393.99
1877.00	411.93
1878.00	404.91
1879.00	405.69
1880.00	401.79
1881.00	391.65
1882.00	397.11
1883.00	379.17
1884.00	401.01
1885.00	375.27
1886.00	365.12
1887.00	379.17
1888.00	411.15
1889.00	415.06
1890.00	386.97
1891.00	348.74
1892.00	343.28
1893.00	377.61
1894.00	399.45
1895.00	383.07
1896.00	354.98
1897.00	356.54
1898.00	393.99
1899.00	393.21
1900.00	385.41
1901.00	389.31
1902.00	423.64
1903.00	447.82
1904.00	435.34
1905.00	405.69
1906.00	411.93
1907.00	407.25
1908.00	438.46
1909.00	412.71
1910.00	393.99
1911.00	354.98
1912.00	337.04
1913.00	347.18
1914.00	364.34
1915.00	370.58
1916.00	362.00
1917.00	352.64
1918.00	377.61
1919.00	390.87
1920.00	397.11
1921.00	401.79
1922.00	408.03
1923.00	388.53
1924.00	357.32
1925.00	360.44
1926.00	368.24
1927.00	376.83
1928.00	384.63
1929.00	394.77
1930.00	407.25
1931.00	414.27
1932.00	423.64
1933.00	410.37
1934.00	376.05
1935.00	348.74
1936.00	347.18
1937.00	368.24
1938.00	400.23
1939.00	389.31
1940.00	387.75
1941.00	364.34
1942.00	387.75
1943.00	380.73
1944.00	398.67
1945.00	377.61
1946.00	383.85
1947.00	372.15
1948.00	392.43
1949.00	373.71
1950.00	372.15
1951.00	362.00
1952.00	373.71
1953.00	362.00
1954.00	354.20
1955.00	362.00
1956.00	385.41
1957.00	387.75
1958.00	389.31
1959.00	392.43
1960.00	414.27
1961.00	414.27
1962.00	394.77
1963.00	379.95
1964.00	384.63
1965.00	392.43
1966.00	383.07
1967.00	383.07
1968.00	393.99
1969.00	382.29
1970.00	373.71
1971.00	385.41
1972.00	417.40
1973.00	440.80
1974.00	433.00
1975.00	438.46
1976.00	413.49
1977.00	418.96
1978.00	386.19
1979.00	366.68
1980.00	343.28
1981.00	346.40
1982.00	377.61
1983.00	396.33
1984.00	432.22
1985.00	415.84
1986.00	392.43
1987.00	401.01
1988.00	403.35
1989.00	403.35
1990.00	376.83
1991.00	390.87
1992.00	383.85
1993.00	376.05
1994.00	360.44
1995.00	363.56
1996.00	364.34
1997.00	367.46
1998.00	390.87
1999.00	379.17
2000.00	366.68
2001.00	368.24
2002.00	430.66
2003.00	436.90
2004.00	407.25
2005.00	348.74
2006.00	342.50
2007.00	351.08
2008.00	364.34
2009.00	384.63
2010.00	388.53
2011.00	389.31
2012.00	393.21
2013.00	404.91
2014.00	399.45
2015.00	379.95
2016.00	379.95
2017.00	396.33
2018.00	385.41
2019.00	373.71
2020.00	364.34
2021.00	379.95
2022.00	386.19
2023.00	375.27
2024.00	383.07
2025.00	383.07
2026.00	390.87
2027.00	386.19
2028.00	379.95
2029.00	388.53
2030.00	407.25
2031.00	409.59
2032.00	388.53
2033.00	371.36
2034.00	372.93
2035.00	360.44
2036.00	327.68
2037.00	324.55
2038.00	342.50
2039.00	373.71
2040.00	344.06
2041.00	333.14
2042.00	328.46
2043.00	337.82
2044.00	370.58
2045.00	372.15
2046.00	405.69
2047.00	414.27
>>>>>End Processed Spectral Data<<<<<
