SpectraSuite Data File
++++++++++++++++++++++++++++++++++++
Date: Thu Nov 16 14:27:23 EST 2017
User: cheriyan
Dark Spectrum Present: No
Reference Spectrum Present: No
Number of Sampled Component Spectra: 1
Spectrometers: USB2+H05261
Integration Time (usec): 100000 (USB2+H05261)
Spectra Averaged: 1 (USB2+H05261)
Boxcar Smoothing: 1 (USB2+H05261)
Correct for Electrical Dark: No (USB2+H05261)
Strobe/Lamp Enabled: No (USB2+H05261)
Correct for Detector Non-linearity: No (USB2+H05261)
Correct for Stray Light: No (USB2+H05261)
Number of Pixels in Processed Spectrum: 2048
>>>>>Begin Processed Spectral Data<<<<<
0.00	311.29
1.00	311.29
2.00	284.77
3.00	245.76
4.00	210.65
5.00	220.01
6.00	212.99
7.00	227.03
8.00	212.99
9.00	230.15
10.00	226.25
11.00	234.05
12.00	227.03
13.00	222.35
14.00	223.13
15.00	249.66
16.00	242.64
17.00	244.98
18.00	252.00
19.00	254.34
20.00	258.24
21.00	225.47
22.00	269.16
23.00	289.45
24.00	330.02
25.00	307.39
26.00	307.39
27.00	309.73
28.00	345.62
29.00	366.68
30.00	371.36
31.00	374.49
32.00	354.20
33.00	369.02
34.00	376.83
35.00	388.53
36.00	379.17
37.00	392.43
38.00	379.95
39.00	390.87
40.00	369.80
41.00	389.31
42.00	406.47
43.00	403.35
44.00	406.47
45.00	383.07
46.00	394.77
47.00	415.06
48.00	384.63
49.00	372.15
50.00	362.00
51.00	396.33
52.00	423.64
53.00	404.91
54.00	423.64
55.00	403.35
56.00	417.40
57.00	408.81
58.00	405.69
59.00	383.07
60.00	370.58
61.00	355.76
62.00	362.00
63.00	359.66
64.00	375.27
65.00	383.07
66.00	392.43
67.00	385.41
68.00	393.99
69.00	360.44
70.00	383.85
71.00	376.83
72.00	393.21
73.00	360.44
74.00	359.66
75.00	344.84
76.00	350.30
77.00	356.54
78.00	351.08
79.00	363.56
80.00	358.88
81.00	376.05
82.00	362.78
83.00	347.18
84.00	355.76
85.00	356.54
86.00	359.66
87.00	383.07
88.00	413.49
89.00	407.25
90.00	383.07
91.00	367.46
92.00	386.97
93.00	389.31
94.00	384.63
95.00	385.41
96.00	390.09
97.00	378.39
98.00	409.59
99.00	404.13
100.00	418.96
101.00	383.85
102.00	388.53
103.00	382.29
104.00	371.36
105.00	354.20
106.00	366.68
107.00	376.83
108.00	395.55
109.00	390.09
110.00	386.97
111.00	364.34
112.00	369.02
113.00	369.80
114.00	392.43
115.00	376.05
116.00	372.15
117.00	378.39
118.00	356.54
119.00	358.88
120.00	351.86
121.00	376.05
122.00	376.83
123.00	382.29
124.00	387.75
125.00	406.47
126.00	390.87
127.00	390.87
128.00	388.53
129.00	390.09
130.00	367.46
131.00	368.24
132.00	386.97
133.00	415.84
134.00	399.45
135.00	404.13
136.00	404.91
137.00	426.76
138.00	412.71
139.00	414.27
140.00	362.00
141.00	358.10
142.00	351.86
143.00	381.51
144.00	381.51
145.00	386.97
146.00	368.24
147.00	364.34
148.00	381.51
149.00	428.32
150.00	428.32
151.00	411.93
152.00	374.49
153.00	374.49
154.00	353.42
155.00	367.46
156.00	372.93
157.00	386.97
158.00	379.95
159.00	393.99
160.00	398.67
161.00	390.09
162.00	365.12
163.00	355.76
164.00	365.90
165.00	371.36
166.00	369.02
167.00	353.42
168.00	369.80
169.00	366.68
170.00	397.89
171.00	377.61
172.00	373.71
173.00	365.12
174.00	365.12
175.00	397.89
176.00	403.35
177.00	401.79
178.00	372.15
179.00	372.15
180.00	380.73
181.00	383.07
182.00	385.41
183.00	382.29
184.00	388.53
185.00	362.78
186.00	367.46
187.00	339.38
188.00	369.02
189.00	355.76
190.00	383.85
191.00	366.68
192.00	361.22
193.00	365.12
194.00	365.90
195.00	366.68
196.00	397.89
197.00	393.99
198.00	411.93
199.00	379.95
200.00	396.33
201.00	388.53
202.00	367.46
203.00	345.62
204.00	333.92
205.00	365.90
206.00	387.75
207.00	422.86
208.00	411.93
209.00	408.81
210.00	404.91
211.00	401.01
212.00	386.97
213.00	347.18
214.00	351.08
215.00	357.32
216.00	390.09
217.00	358.10
218.00	351.86
219.00	345.62
220.00	382.29
221.00	387.75
222.00	379.17
223.00	379.95
224.00	384.63
225.00	401.79
226.00	390.09
227.00	381.51
228.00	367.46
229.00	362.78
230.00	354.20
231.00	365.90
232.00	367.46
233.00	390.87
234.00	389.31
235.00	388.53
236.00	386.97
237.00	383.85
238.00	365.90
239.00	365.90
240.00	352.64
241.00	362.78
242.00	389.31
243.00	415.84
244.00	415.84
245.00	361.22
246.00	328.46
247.00	342.50
248.00	370.58
249.00	390.87
250.00	376.05
251.00	397.11
252.00	396.33
253.00	411.93
254.00	372.93
255.00	372.15
256.00	367.46
257.00	367.46
258.00	357.32
259.00	365.12
260.00	367.46
261.00	358.88
262.00	362.00
263.00	354.98
264.00	375.27
265.00	376.05
266.00	392.43
267.00	393.99
268.00	400.23
269.00	394.77
270.00	409.59
271.00	384.63
272.00	416.62
273.00	387.75
274.00	390.09
275.00	371.36
276.00	385.41
277.00	406.47
278.00	386.97
279.00	403.35
280.00	397.89
281.00	422.08
282.00	399.45
283.00	400.23
284.00	386.97
285.00	393.99
286.00	387.75
287.00	379.95
288.00	390.09
289.00	421.30
290.00	442.36
291.00	440.02
292.00	414.27
293.00	377.61
294.00	384.63
295.00	382.29
296.00	402.57
297.00	370.58
298.00	368.24
299.00	361.22
300.00	381.51
301.00	371.36
302.00	395.55
303.00	388.53
304.00	393.21
305.00	403.35
306.00	407.25
307.00	401.79
308.00	380.73
309.00	404.91
310.00	430.66
311.00	437.68
312.00	422.86
313.00	415.06
314.00	383.85
315.00	378.39
316.00	386.97
317.00	414.27
318.00	411.93
319.00	390.09
320.00	375.27
321.00	365.90
322.00	356.54
323.00	362.78
324.00	339.38
325.00	334.70
326.00	332.36
327.00	363.56
328.00	390.87
329.00	397.11
330.00	405.69
331.00	396.33
332.00	374.49
333.00	371.36
334.00	371.36
335.00	397.89
336.00	377.61
337.00	393.99
338.00	370.58
339.00	391.65
340.00	371.36
341.00	418.96
342.00	414.27
343.00	416.62
344.00	385.41
345.00	393.99
346.00	398.67
347.00	413.49
348.00	405.69
349.00	408.03
350.00	405.69
351.00	387.75
352.00	384.63
353.00	370.58
354.00	376.83
355.00	364.34
356.00	350.30
357.00	349.52
358.00	364.34
359.00	380.73
360.00	404.13
361.00	399.45
362.00	418.96
363.00	421.30
364.00	423.64
365.00	397.89
366.00	377.61
367.00	368.24
368.00	399.45
369.00	405.69
370.00	417.40
371.00	407.25
372.00	416.62
373.00	410.37
374.00	414.27
375.00	398.67
376.00	412.71
377.00	383.07
378.00	396.33
379.00	377.61
380.00	391.65
381.00	376.83
382.00	385.41
383.00	368.24
384.00	379.17
385.00	386.97
386.00	388.53
387.00	361.22
388.00	360.44
389.00	353.42
390.00	379.17
391.00	378.39
392.00	393.21
393.00	397.89
394.00	401.79
395.00	407.25
396.00	400.23
397.00	415.06
398.00	416.62
399.00	419.74
400.00	388.53
401.00	383.07
402.00	391.65
403.00	397.89
404.00	390.09
405.00	383.85
406.00	376.05
407.00	363.56
408.00	337.82
409.00	335.48
410.00	347.18
411.00	362.78
412.00	388.53
413.00	401.01
414.00	398.67
415.00	370.58
416.00	369.80
417.00	379.95
418.00	398.67
419.00	399.45
420.00	419.74
421.00	420.52
422.00	411.93
423.00	371.36
424.00	371.36
425.00	386.19
426.00	415.84
427.00	411.15
428.00	391.65
429.00	390.87
430.00	381.51
431.00	390.87
432.00	383.85
433.00	361.22
434.00	379.95
435.00	386.97
436.00	433.78
437.00	444.70
438.00	425.20
439.00	401.79
440.00	379.17
441.00	389.31
442.00	408.81
443.00	408.81
444.00	420.52
445.00	407.25
446.00	405.69
447.00	387.75
448.00	401.01
449.00	404.13
450.00	404.91
451.00	381.51
452.00	371.36
453.00	369.80
454.00	365.90
455.00	385.41
456.00	406.47
457.00	409.59
458.00	386.97
459.00	376.05
460.00	365.12
461.00	383.85
462.00	365.90
463.00	390.87
464.00	384.63
465.00	404.91
466.00	418.96
467.00	415.06
468.00	411.93
469.00	400.23
470.00	408.03
471.00	435.34
472.00	433.00
473.00	426.76
474.00	410.37
475.00	403.35
476.00	393.99
477.00	387.75
478.00	389.31
479.00	403.35
480.00	400.23
481.00	391.65
482.00	409.59
483.00	397.11
484.00	404.91
485.00	386.97
486.00	368.24
487.00	342.50
488.00	340.16
489.00	389.31
490.00	390.87
491.00	415.06
492.00	394.77
493.00	408.81
494.00	384.63
495.00	407.25
496.00	426.76
497.00	445.48
498.00	417.40
499.00	416.62
500.00	403.35
501.00	404.13
502.00	390.87
503.00	387.75
504.00	381.51
505.00	415.84
506.00	429.10
507.00	443.14
508.00	435.34
509.00	409.59
510.00	426.76
511.00	422.86
512.00	454.84
513.00	427.54
514.00	414.27
515.00	393.99
516.00	397.89
517.00	401.79
518.00	418.18
519.00	414.27
520.00	388.53
521.00	369.80
522.00	387.75
523.00	407.25
524.00	428.32
525.00	421.30
526.00	413.49
527.00	397.89
528.00	406.47
529.00	416.62
530.00	399.45
531.00	356.54
532.00	362.78
533.00	362.78
534.00	398.67
535.00	408.81
536.00	433.78
537.00	421.30
538.00	400.23
539.00	398.67
540.00	404.13
541.00	415.06
542.00	412.71
543.00	404.91
544.00	403.35
545.00	369.80
546.00	375.27
547.00	367.46
548.00	389.31
549.00	390.09
550.00	372.93
551.00	358.88
552.00	369.80
553.00	401.79
554.00	410.37
555.00	386.19
556.00	377.61
557.00	376.83
558.00	402.57
559.00	411.15
560.00	420.52
561.00	421.30
562.00	411.93
563.00	388.53
564.00	363.56
565.00	358.10
566.00	397.11
567.00	403.35
568.00	391.65
569.00	358.88
570.00	365.90
571.00	401.01
572.00	411.93
573.00	401.79
574.00	413.49
575.00	422.08
576.00	422.08
577.00	367.46
578.00	358.88
579.00	359.66
580.00	392.43
581.00	383.85
582.00	398.67
583.00	379.17
584.00	381.51
585.00	382.29
586.00	380.73
587.00	381.51
588.00	372.93
589.00	387.75
590.00	408.81
591.00	414.27
592.00	401.01
593.00	376.05
594.00	369.80
595.00	379.17
596.00	383.85
597.00	376.05
598.00	377.61
599.00	415.84
600.00	433.78
601.00	450.94
602.00	416.62
603.00	399.45
604.00	365.12
605.00	385.41
606.00	404.13
607.00	411.93
608.00	383.85
609.00	344.06
610.00	351.86
611.00	378.39
612.00	413.49
613.00	404.91
614.00	408.81
615.00	405.69
616.00	425.20
617.00	401.79
618.00	414.27
619.00	404.13
620.00	407.25
621.00	391.65
622.00	401.01
623.00	387.75
624.00	402.57
625.00	409.59
626.00	427.54
627.00	396.33
628.00	377.61
629.00	409.59
630.00	429.10
631.00	416.62
632.00	365.90
633.00	371.36
634.00	399.45
635.00	438.46
636.00	482.93
637.00	517.26
638.00	528.96
639.00	512.58
640.00	461.87
641.00	451.72
642.00	416.62
643.00	424.42
644.00	378.39
645.00	377.61
646.00	354.98
647.00	375.27
648.00	349.52
649.00	366.68
650.00	415.06
651.00	460.31
652.00	457.96
653.00	427.54
654.00	441.58
655.00	457.96
656.00	464.21
657.00	425.98
658.00	400.23
659.00	376.83
660.00	412.71
661.00	429.10
662.00	461.87
663.00	415.84
664.00	408.03
665.00	387.75
666.00	389.31
667.00	382.29
668.00	390.87
669.00	387.75
670.00	397.11
671.00	387.75
672.00	403.35
673.00	411.93
674.00	412.71
675.00	401.01
676.00	395.55
677.00	386.97
678.00	390.87
679.00	403.35
680.00	439.24
681.00	454.06
682.00	443.92
683.00	391.65
684.00	408.81
685.00	394.77
686.00	431.44
687.00	408.03
688.00	397.89
689.00	401.79
690.00	409.59
691.00	429.88
692.00	414.27
693.00	393.21
694.00	393.99
695.00	403.35
696.00	422.86
697.00	404.91
698.00	395.55
699.00	395.55
700.00	418.18
701.00	410.37
702.00	413.49
703.00	410.37
704.00	390.87
705.00	385.41
706.00	383.07
707.00	402.57
708.00	399.45
709.00	376.05
710.00	360.44
711.00	363.56
712.00	373.71
713.00	383.07
714.00	379.95
715.00	401.79
716.00	412.71
717.00	418.18
718.00	476.69
719.00	460.31
720.00	468.89
721.00	408.03
722.00	435.34
723.00	416.62
724.00	396.33
725.00	379.17
726.00	377.61
727.00	372.15
728.00	333.92
729.00	353.42
730.00	372.15
731.00	411.93
732.00	415.84
733.00	426.76
734.00	431.44
735.00	426.76
736.00	393.21
737.00	379.95
738.00	374.49
739.00	383.07
740.00	386.19
741.00	376.05
742.00	411.15
743.00	424.42
744.00	413.49
745.00	379.17
746.00	372.93
747.00	383.07
748.00	401.79
749.00	385.41
750.00	386.97
751.00	381.51
752.00	386.97
753.00	371.36
754.00	395.55
755.00	376.83
756.00	372.93
757.00	325.33
758.00	327.68
759.00	352.64
760.00	381.51
761.00	384.63
762.00	385.41
763.00	365.90
764.00	407.25
765.00	400.23
766.00	424.42
767.00	402.57
768.00	385.41
769.00	382.29
770.00	369.80
771.00	382.29
772.00	386.19
773.00	406.47
774.00	423.64
775.00	420.52
776.00	413.49
777.00	425.20
778.00	408.03
779.00	414.27
780.00	398.67
781.00	404.13
782.00	402.57
783.00	446.26
784.00	459.53
785.00	444.70
786.00	398.67
787.00	399.45
788.00	391.65
789.00	375.27
790.00	352.64
791.00	333.14
792.00	327.68
793.00	337.82
794.00	361.22
795.00	384.63
796.00	382.29
797.00	400.23
798.00	408.81
799.00	413.49
800.00	382.29
801.00	373.71
802.00	365.12
803.00	406.47
804.00	389.31
805.00	378.39
806.00	347.96
807.00	365.90
808.00	383.85
809.00	385.41
810.00	377.61
811.00	396.33
812.00	382.29
813.00	371.36
814.00	347.18
815.00	389.31
816.00	400.23
817.00	407.25
818.00	401.01
819.00	399.45
820.00	371.36
821.00	358.10
822.00	383.85
823.00	399.45
824.00	383.85
825.00	333.14
826.00	345.62
827.00	379.95
828.00	411.15
829.00	404.13
830.00	406.47
831.00	409.59
832.00	421.30
833.00	404.13
834.00	422.86
835.00	406.47
836.00	390.87
837.00	353.42
838.00	379.95
839.00	383.07
840.00	392.43
841.00	379.95
842.00	393.21
843.00	413.49
844.00	423.64
845.00	444.70
846.00	417.40
847.00	406.47
848.00	408.03
849.00	407.25
850.00	393.99
851.00	365.12
852.00	377.61
853.00	368.24
854.00	362.78
855.00	362.78
856.00	387.75
857.00	397.11
858.00	412.71
859.00	409.59
860.00	401.01
861.00	404.91
862.00	404.13
863.00	408.03
864.00	388.53
865.00	379.17
866.00	391.65
867.00	386.19
868.00	381.51
869.00	384.63
870.00	388.53
871.00	395.55
872.00	408.81
873.00	419.74
874.00	440.02
875.00	426.76
876.00	429.88
877.00	404.13
878.00	411.93
879.00	379.17
880.00	404.13
881.00	383.07
882.00	383.07
883.00	372.93
884.00	384.63
885.00	403.35
886.00	389.31
887.00	385.41
888.00	385.41
889.00	374.49
890.00	381.51
891.00	376.05
892.00	382.29
893.00	357.32
894.00	355.76
895.00	354.20
896.00	366.68
897.00	365.12
898.00	367.46
899.00	344.06
900.00	356.54
901.00	365.12
902.00	383.07
903.00	396.33
904.00	394.77
905.00	399.45
906.00	385.41
907.00	388.53
908.00	411.15
909.00	762.23
910.00	788.76
911.00	763.79
912.00	408.03
913.00	392.43
914.00	391.65
915.00	399.45
916.00	383.07
917.00	424.42
918.00	433.78
919.00	441.58
920.00	390.09
921.00	397.11
922.00	395.55
923.00	383.07
924.00	381.51
925.00	385.41
926.00	425.20
927.00	398.67
928.00	398.67
929.00	412.71
930.00	412.71
931.00	413.49
932.00	397.11
933.00	382.29
934.00	378.39
935.00	368.24
936.00	388.53
937.00	387.75
938.00	399.45
939.00	393.21
940.00	427.54
941.00	431.44
942.00	454.06
943.00	418.18
944.00	399.45
945.00	394.77
946.00	393.99
947.00	416.62
948.00	422.08
949.00	433.00
950.00	443.92
951.00	427.54
952.00	421.30
953.00	389.31
954.00	389.31
955.00	411.93
956.00	415.06
957.00	404.13
958.00	371.36
959.00	357.32
960.00	362.00
961.00	387.75
962.00	405.69
963.00	419.74
964.00	420.52
965.00	443.92
966.00	417.40
967.00	401.79
968.00	375.27
969.00	397.11
970.00	398.67
971.00	408.03
972.00	404.13
973.00	390.87
974.00	374.49
975.00	372.93
976.00	387.75
977.00	383.07
978.00	380.73
979.00	386.97
980.00	384.63
981.00	380.73
982.00	356.54
983.00	369.80
984.00	369.80
985.00	386.19
986.00	359.66
987.00	365.12
988.00	379.17
989.00	393.99
990.00	383.85
991.00	362.00
992.00	363.56
993.00	371.36
994.00	365.12
995.00	376.05
996.00	389.31
997.00	381.51
998.00	376.83
999.00	339.38
1000.00	345.62
1001.00	332.36
1002.00	392.43
1003.00	396.33
1004.00	409.59
1005.00	384.63
1006.00	406.47
1007.00	433.78
1008.00	433.78
1009.00	456.40
1010.00	435.34
1011.00	439.24
1012.00	426.76
1013.00	440.02
1014.00	397.89
1015.00	367.46
1016.00	346.40
1017.00	375.27
1018.00	376.83
1019.00	384.63
1020.00	368.24
1021.00	377.61
1022.00	366.68
1023.00	372.93
1024.00	368.24
1025.00	358.10
1026.00	362.78
1027.00	367.46
1028.00	388.53
1029.00	382.29
1030.00	391.65
1031.00	394.77
1032.00	412.71
1033.00	415.06
1034.00	418.18
1035.00	425.98
1036.00	436.12
1037.00	443.14
1038.00	440.02
1039.00	432.22
1040.00	432.22
1041.00	408.03
1042.00	376.83
1043.00	355.76
1044.00	372.93
1045.00	413.49
1046.00	438.46
1047.00	423.64
1048.00	380.73
1049.00	369.02
1050.00	372.15
1051.00	386.97
1052.00	386.97
1053.00	392.43
1054.00	389.31
1055.00	373.71
1056.00	377.61
1057.00	395.55
1058.00	406.47
1059.00	412.71
1060.00	406.47
1061.00	414.27
1062.00	411.15
1063.00	416.62
1064.00	415.06
1065.00	439.24
1066.00	418.18
1067.00	415.06
1068.00	388.53
1069.00	396.33
1070.00	386.97
1071.00	397.11
1072.00	407.25
1073.00	410.37
1074.00	391.65
1075.00	395.55
1076.00	415.06
1077.00	438.46
1078.00	438.46
1079.00	437.68
1080.00	434.56
1081.00	408.03
1082.00	378.39
1083.00	358.10
1084.00	351.08
1085.00	376.83
1086.00	397.89
1087.00	419.74
1088.00	415.06
1089.00	392.43
1090.00	409.59
1091.00	381.51
1092.00	390.09
1093.00	367.46
1094.00	397.89
1095.00	416.62
1096.00	397.11
1097.00	360.44
1098.00	338.60
1099.00	364.34
1100.00	386.97
1101.00	396.33
1102.00	411.15
1103.00	412.71
1104.00	408.03
1105.00	380.73
1106.00	379.95
1107.00	385.41
1108.00	395.55
1109.00	401.79
1110.00	379.17
1111.00	379.17
1112.00	385.41
1113.00	403.35
1114.00	385.41
1115.00	395.55
1116.00	371.36
1117.00	383.07
1118.00	348.74
1119.00	376.05
1120.00	386.97
1121.00	389.31
1122.00	411.15
1123.00	407.25
1124.00	422.08
1125.00	399.45
1126.00	385.41
1127.00	393.99
1128.00	395.55
1129.00	401.01
1130.00	390.09
1131.00	393.21
1132.00	401.01
1133.00	428.32
1134.00	433.78
1135.00	447.82
1136.00	442.36
1137.00	446.26
1138.00	443.92
1139.00	425.98
1140.00	416.62
1141.00	403.35
1142.00	399.45
1143.00	377.61
1144.00	379.17
1145.00	372.15
1146.00	397.89
1147.00	378.39
1148.00	383.07
1149.00	347.96
1150.00	371.36
1151.00	386.19
1152.00	441.58
1153.00	443.14
1154.00	428.32
1155.00	389.31
1156.00	393.21
1157.00	395.55
1158.00	397.89
1159.00	414.27
1160.00	408.03
1161.00	420.52
1162.00	390.09
1163.00	400.23
1164.00	390.09
1165.00	399.45
1166.00	412.71
1167.00	421.30
1168.00	434.56
1169.00	418.96
1170.00	413.49
1171.00	393.99
1172.00	395.55
1173.00	376.83
1174.00	368.24
1175.00	372.93
1176.00	393.21
1177.00	402.57
1178.00	379.95
1179.00	375.27
1180.00	384.63
1181.00	407.25
1182.00	404.91
1183.00	403.35
1184.00	401.79
1185.00	401.01
1186.00	402.57
1187.00	398.67
1188.00	397.89
1189.00	410.37
1190.00	405.69
1191.00	421.30
1192.00	393.21
1193.00	406.47
1194.00	415.06
1195.00	426.76
1196.00	435.34
1197.00	400.23
1198.00	397.89
1199.00	397.89
1200.00	413.49
1201.00	414.27
1202.00	401.01
1203.00	430.66
1204.00	433.78
1205.00	450.94
1206.00	426.76
1207.00	429.88
1208.00	432.22
1209.00	425.98
1210.00	411.15
1211.00	381.51
1212.00	378.39
1213.00	386.97
1214.00	383.85
1215.00	405.69
1216.00	425.20
1217.00	429.10
1218.00	415.84
1219.00	408.81
1220.00	410.37
1221.00	410.37
1222.00	408.81
1223.00	411.15
1224.00	408.03
1225.00	404.91
1226.00	397.11
1227.00	379.95
1228.00	384.63
1229.00	379.95
1230.00	399.45
1231.00	372.93
1232.00	379.95
1233.00	376.05
1234.00	368.24
1235.00	387.75
1236.00	421.30
1237.00	444.70
1238.00	417.40
1239.00	394.77
1240.00	399.45
1241.00	390.09
1242.00	397.11
1243.00	381.51
1244.00	393.21
1245.00	393.99
1246.00	425.98
1247.00	433.78
1248.00	376.05
1249.00	362.00
1250.00	362.78
1251.00	410.37
1252.00	417.40
1253.00	406.47
1254.00	372.93
1255.00	343.28
1256.00	332.36
1257.00	379.17
1258.00	422.86
1259.00	443.92
1260.00	431.44
1261.00	399.45
1262.00	422.08
1263.00	424.42
1264.00	404.91
1265.00	372.93
1266.00	359.66
1267.00	390.09
1268.00	428.32
1269.00	440.80
1270.00	440.02
1271.00	429.10
1272.00	437.68
1273.00	435.34
1274.00	418.96
1275.00	380.73
1276.00	377.61
1277.00	351.08
1278.00	362.78
1279.00	368.24
1280.00	405.69
1281.00	440.02
1282.00	429.10
1283.00	416.62
1284.00	411.93
1285.00	413.49
1286.00	410.37
1287.00	414.27
1288.00	405.69
1289.00	398.67
1290.00	376.83
1291.00	402.57
1292.00	447.82
1293.00	455.62
1294.00	443.14
1295.00	414.27
1296.00	398.67
1297.00	393.21
1298.00	404.91
1299.00	397.89
1300.00	385.41
1301.00	400.23
1302.00	383.85
1303.00	378.39
1304.00	351.08
1305.00	351.08
1306.00	356.54
1307.00	340.16
1308.00	369.02
1309.00	404.91
1310.00	425.20
1311.00	437.68
1312.00	419.74
1313.00	417.40
1314.00	399.45
1315.00	390.09
1316.00	366.68
1317.00	359.66
1318.00	359.66
1319.00	375.27
1320.00	365.90
1321.00	368.24
1322.00	361.22
1323.00	363.56
1324.00	378.39
1325.00	417.40
1326.00	443.92
1327.00	426.76
1328.00	379.95
1329.00	348.74
1330.00	368.24
1331.00	402.57
1332.00	422.08
1333.00	396.33
1334.00	405.69
1335.00	433.00
1336.00	457.96
1337.00	448.60
1338.00	423.64
1339.00	421.30
1340.00	382.29
1341.00	386.97
1342.00	376.83
1343.00	370.58
1344.00	383.07
1345.00	391.65
1346.00	399.45
1347.00	369.02
1348.00	369.02
1349.00	379.17
1350.00	384.63
1351.00	388.53
1352.00	396.33
1353.00	380.73
1354.00	362.00
1355.00	355.76
1356.00	379.17
1357.00	417.40
1358.00	444.70
1359.00	433.78
1360.00	398.67
1361.00	381.51
1362.00	403.35
1363.00	416.62
1364.00	398.67
1365.00	394.77
1366.00	407.25
1367.00	413.49
1368.00	416.62
1369.00	390.09
1370.00	410.37
1371.00	413.49
1372.00	422.08
1373.00	429.10
1374.00	440.80
1375.00	429.10
1376.00	418.18
1377.00	403.35
1378.00	428.32
1379.00	411.93
1380.00	415.84
1381.00	395.55
1382.00	401.79
1383.00	404.13
1384.00	408.81
1385.00	411.15
1386.00	389.31
1387.00	387.75
1388.00	385.41
1389.00	392.43
1390.00	383.07
1391.00	381.51
1392.00	380.73
1393.00	401.79
1394.00	414.27
1395.00	422.86
1396.00	410.37
1397.00	401.01
1398.00	401.01
1399.00	386.19
1400.00	392.43
1401.00	411.15
1402.00	458.75
1403.00	460.31
1404.00	444.70
1405.00	415.84
1406.00	385.41
1407.00	386.97
1408.00	386.97
1409.00	422.08
1410.00	417.40
1411.00	421.30
1412.00	419.74
1413.00	413.49
1414.00	384.63
1415.00	333.14
1416.00	336.26
1417.00	349.52
1418.00	383.07
1419.00	381.51
1420.00	390.87
1421.00	404.13
1422.00	411.15
1423.00	411.15
1424.00	408.03
1425.00	418.96
1426.00	416.62
1427.00	395.55
1428.00	377.61
1429.00	386.97
1430.00	407.25
1431.00	394.77
1432.00	393.99
1433.00	395.55
1434.00	433.00
1435.00	441.58
1436.00	451.72
1437.00	422.86
1438.00	388.53
1439.00	362.78
1440.00	356.54
1441.00	390.87
1442.00	399.45
1443.00	451.72
1444.00	441.58
1445.00	447.04
1446.00	408.81
1447.00	408.81
1448.00	410.37
1449.00	405.69
1450.00	400.23
1451.00	379.95
1452.00	385.41
1453.00	373.71
1454.00	383.07
1455.00	357.32
1456.00	368.24
1457.00	354.98
1458.00	421.30
1459.00	426.76
1460.00	449.38
1461.00	404.13
1462.00	398.67
1463.00	398.67
1464.00	386.19
1465.00	392.43
1466.00	401.01
1467.00	397.89
1468.00	415.84
1469.00	400.23
1470.00	422.08
1471.00	387.75
1472.00	385.41
1473.00	390.87
1474.00	407.25
1475.00	420.52
1476.00	415.06
1477.00	415.84
1478.00	440.02
1479.00	438.46
1480.00	434.56
1481.00	383.85
1482.00	380.73
1483.00	374.49
1484.00	405.69
1485.00	401.01
1486.00	411.15
1487.00	389.31
1488.00	386.19
1489.00	372.93
1490.00	388.53
1491.00	384.63
1492.00	381.51
1493.00	365.90
1494.00	369.02
1495.00	372.93
1496.00	398.67
1497.00	403.35
1498.00	417.40
1499.00	404.13
1500.00	388.53
1501.00	375.27
1502.00	383.07
1503.00	406.47
1504.00	424.42
1505.00	417.40
1506.00	435.34
1507.00	410.37
1508.00	419.74
1509.00	378.39
1510.00	392.43
1511.00	399.45
1512.00	412.71
1513.00	413.49
1514.00	413.49
1515.00	438.46
1516.00	454.06
1517.00	414.27
1518.00	386.97
1519.00	356.54
1520.00	350.30
1521.00	377.61
1522.00	403.35
1523.00	418.96
1524.00	375.27
1525.00	368.24
1526.00	387.75
1527.00	413.49
1528.00	407.25
1529.00	397.89
1530.00	403.35
1531.00	403.35
1532.00	397.11
1533.00	382.29
1534.00	387.75
1535.00	393.21
1536.00	408.81
1537.00	409.59
1538.00	422.86
1539.00	401.01
1540.00	392.43
1541.00	406.47
1542.00	468.89
1543.00	486.83
1544.00	458.74
1545.00	389.31
1546.00	370.58
1547.00	397.11
1548.00	426.76
1549.00	438.46
1550.00	403.35
1551.00	404.91
1552.00	415.84
1553.00	419.74
1554.00	412.71
1555.00	390.87
1556.00	397.11
1557.00	391.65
1558.00	388.53
1559.00	406.47
1560.00	405.69
1561.00	404.13
1562.00	415.06
1563.00	396.33
1564.00	379.17
1565.00	355.76
1566.00	379.17
1567.00	416.62
1568.00	408.81
1569.00	404.13
1570.00	365.90
1571.00	368.24
1572.00	354.98
1573.00	369.80
1574.00	398.67
1575.00	411.93
1576.00	423.64
1577.00	413.49
1578.00	402.57
1579.00	409.59
1580.00	411.93
1581.00	433.78
1582.00	417.40
1583.00	373.71
1584.00	349.52
1585.00	356.54
1586.00	384.63
1587.00	409.59
1588.00	395.55
1589.00	404.13
1590.00	398.67
1591.00	418.18
1592.00	420.52
1593.00	401.01
1594.00	411.93
1595.00	391.65
1596.00	415.06
1597.00	415.06
1598.00	417.40
1599.00	403.35
1600.00	408.81
1601.00	403.35
1602.00	407.25
1603.00	391.65
1604.00	392.43
1605.00	389.31
1606.00	365.90
1607.00	375.27
1608.00	360.44
1609.00	363.56
1610.00	355.76
1611.00	388.53
1612.00	388.53
1613.00	411.93
1614.00	396.33
1615.00	393.99
1616.00	397.89
1617.00	377.61
1618.00	415.84
1619.00	392.43
1620.00	435.34
1621.00	422.08
1622.00	441.58
1623.00	423.64
1624.00	447.04
1625.00	428.32
1626.00	408.81
1627.00	381.51
1628.00	393.21
1629.00	405.69
1630.00	411.93
1631.00	427.54
1632.00	450.94
1633.00	440.80
1634.00	401.79
1635.00	372.93
1636.00	357.32
1637.00	362.78
1638.00	381.51
1639.00	359.66
1640.00	339.38
1641.00	325.33
1642.00	379.95
1643.00	418.96
1644.00	443.92
1645.00	434.56
1646.00	402.57
1647.00	347.18
1648.00	359.66
1649.00	365.12
1650.00	393.99
1651.00	376.05
1652.00	401.01
1653.00	383.85
1654.00	380.73
1655.00	376.83
1656.00	393.99
1657.00	392.43
1658.00	398.67
1659.00	398.67
1660.00	387.75
1661.00	397.89
1662.00	397.89
1663.00	408.81
1664.00	385.41
1665.00	383.07
1666.00	380.73
1667.00	420.52
1668.00	411.93
1669.00	433.78
1670.00	379.17
1671.00	390.87
1672.00	372.15
1673.00	395.55
1674.00	379.95
1675.00	378.39
1676.00	376.83
1677.00	392.43
1678.00	387.75
1679.00	379.17
1680.00	377.61
1681.00	375.27
1682.00	369.80
1683.00	367.46
1684.00	388.53
1685.00	453.28
1686.00	546.91
1687.00	621.80
1688.00	703.72
1689.00	782.52
1690.00	855.08
1691.00	871.46
1692.00	809.05
1693.00	720.10
1694.00	611.66
1695.00	521.16
1696.00	475.91
1697.00	443.14
1698.00	422.08
1699.00	418.96
1700.00	398.67
1701.00	420.52
1702.00	416.62
1703.00	444.70
1704.00	424.42
1705.00	399.45
1706.00	385.41
1707.00	409.59
1708.00	413.49
1709.00	389.31
1710.00	358.10
1711.00	330.80
1712.00	356.54
1713.00	353.42
1714.00	385.41
1715.00	382.29
1716.00	420.52
1717.00	396.33
1718.00	418.96
1719.00	376.83
1720.00	385.41
1721.00	343.28
1722.00	351.08
1723.00	363.56
1724.00	386.97
1725.00	417.40
1726.00	434.56
1727.00	429.88
1728.00	410.37
1729.00	388.53
1730.00	404.91
1731.00	404.91
1732.00	424.42
1733.00	415.84
1734.00	415.84
1735.00	404.13
1736.00	397.11
1737.00	399.45
1738.00	408.03
1739.00	401.01
1740.00	391.65
1741.00	372.15
1742.00	355.76
1743.00	361.22
1744.00	360.44
1745.00	377.61
1746.00	380.73
1747.00	404.91
1748.00	419.74
1749.00	399.45
1750.00	382.29
1751.00	386.97
1752.00	421.30
1753.00	431.44
1754.00	429.88
1755.00	420.52
1756.00	419.74
1757.00	379.17
1758.00	404.91
1759.00	397.11
1760.00	420.52
1761.00	377.61
1762.00	378.39
1763.00	371.36
1764.00	376.05
1765.00	363.56
1766.00	386.19
1767.00	387.75
1768.00	392.43
1769.00	376.83
1770.00	395.55
1771.00	408.03
1772.00	397.89
1773.00	401.01
1774.00	428.32
1775.00	436.90
1776.00	425.20
1777.00	394.77
1778.00	407.25
1779.00	425.20
1780.00	450.16
1781.00	449.38
1782.00	424.42
1783.00	429.10
1784.00	421.30
1785.00	437.68
1786.00	406.47
1787.00	421.30
1788.00	409.59
1789.00	415.84
1790.00	389.31
1791.00	388.53
1792.00	379.17
1793.00	379.95
1794.00	388.53
1795.00	403.35
1796.00	427.54
1797.00	429.88
1798.00	412.71
1799.00	397.89
1800.00	394.77
1801.00	384.63
1802.00	408.03
1803.00	405.69
1804.00	403.35
1805.00	372.93
1806.00	367.46
1807.00	394.77
1808.00	417.40
1809.00	404.13
1810.00	402.57
1811.00	383.85
1812.00	404.13
1813.00	379.17
1814.00	357.32
1815.00	345.62
1816.00	375.27
1817.00	411.15
1818.00	414.27
1819.00	398.67
1820.00	397.89
1821.00	400.23
1822.00	415.06
1823.00	415.06
1824.00	433.00
1825.00	409.59
1826.00	395.55
1827.00	374.49
1828.00	380.73
1829.00	394.77
1830.00	397.89
1831.00	404.91
1832.00	383.07
1833.00	371.36
1834.00	378.39
1835.00	372.15
1836.00	393.99
1837.00	375.27
1838.00	403.35
1839.00	413.49
1840.00	433.00
1841.00	393.21
1842.00	398.67
1843.00	393.99
1844.00	414.27
1845.00	393.21
1846.00	369.02
1847.00	365.12
1848.00	367.46
1849.00	396.33
1850.00	414.27
1851.00	388.53
1852.00	360.44
1853.00	350.30
1854.00	361.22
1855.00	375.27
1856.00	390.09
1857.00	405.69
1858.00	386.19
1859.00	390.09
1860.00	381.51
1861.00	413.49
1862.00	388.53
1863.00	383.07
1864.00	357.32
1865.00	393.21
1866.00	383.07
1867.00	406.47
1868.00	385.41
1869.00	397.89
1870.00	389.31
1871.00	382.29
1872.00	372.93
1873.00	385.41
1874.00	383.85
1875.00	391.65
1876.00	390.09
1877.00	404.91
1878.00	425.20
1879.00	433.78
1880.00	441.58
1881.00	408.81
1882.00	386.19
1883.00	374.49
1884.00	374.49
1885.00	391.65
1886.00	385.41
1887.00	400.23
1888.00	393.21
1889.00	401.01
1890.00	389.31
1891.00	390.09
1892.00	376.05
1893.00	393.21
1894.00	390.87
1895.00	380.73
1896.00	393.99
1897.00	372.93
1898.00	383.07
1899.00	371.36
1900.00	411.93
1901.00	417.40
1902.00	424.42
1903.00	393.99
1904.00	397.89
1905.00	374.49
1906.00	393.99
1907.00	391.65
1908.00	412.71
1909.00	412.71
1910.00	408.81
1911.00	389.31
1912.00	363.56
1913.00	365.90
1914.00	389.31
1915.00	422.08
1916.00	422.08
1917.00	379.17
1918.00	360.44
1919.00	374.49
1920.00	406.47
1921.00	423.64
1922.00	412.71
1923.00	411.15
1924.00	399.45
1925.00	408.03
1926.00	403.35
1927.00	389.31
1928.00	372.93
1929.00	361.22
1930.00	379.17
1931.00	378.39
1932.00	418.18
1933.00	424.42
1934.00	417.40
1935.00	388.53
1936.00	386.97
1937.00	394.77
1938.00	403.35
1939.00	386.19
1940.00	403.35
1941.00	402.57
1942.00	396.33
1943.00	388.53
1944.00	368.24
1945.00	372.15
1946.00	363.56
1947.00	389.31
1948.00	376.05
1949.00	384.63
1950.00	366.68
1951.00	379.95
1952.00	363.56
1953.00	375.27
1954.00	372.93
1955.00	381.51
1956.00	386.97
1957.00	395.55
1958.00	408.81
1959.00	390.87
1960.00	387.75
1961.00	373.71
1962.00	407.25
1963.00	390.09
1964.00	398.67
1965.00	369.02
1966.00	370.58
1967.00	368.24
1968.00	369.02
1969.00	406.47
1970.00	398.67
1971.00	403.35
1972.00	388.53
1973.00	430.66
1974.00	441.58
1975.00	433.00
1976.00	406.47
1977.00	384.63
1978.00	372.15
1979.00	358.10
1980.00	383.07
1981.00	401.79
1982.00	409.59
1983.00	379.95
1984.00	382.29
1985.00	397.11
1986.00	393.99
1987.00	393.21
1988.00	375.27
1989.00	390.87
1990.00	377.61
1991.00	367.46
1992.00	376.83
1993.00	380.73
1994.00	404.91
1995.00	395.55
1996.00	414.27
1997.00	392.43
1998.00	402.57
1999.00	385.41
2000.00	374.49
2001.00	370.58
2002.00	376.05
2003.00	402.57
2004.00	392.43
2005.00	390.09
2006.00	360.44
2007.00	363.56
2008.00	376.83
2009.00	386.19
2010.00	369.80
2011.00	346.40
2012.00	382.29
2013.00	413.49
2014.00	413.49
2015.00	371.36
2016.00	363.56
2017.00	371.36
2018.00	399.45
2019.00	378.39
2020.00	393.21
2021.00	396.33
2022.00	433.78
2023.00	418.18
2024.00	423.64
2025.00	374.49
2026.00	372.15
2027.00	330.02
2028.00	365.12
2029.00	371.36
2030.00	425.98
2031.00	415.06
2032.00	397.89
2033.00	367.46
2034.00	371.36
2035.00	378.39
2036.00	386.97
2037.00	387.75
2038.00	391.65
2039.00	349.52
2040.00	358.10
2041.00	354.20
2042.00	414.27
2043.00	408.03
2044.00	395.55
2045.00	357.32
2046.00	354.98
2047.00	386.19
>>>>>End Processed Spectral Data<<<<<
